1,-0.292813,-0.301562,-0.310937,-0.292812,-0.228125,-0.274375,-0.338125,-0.388125,0.213125,-0.39125,-0.395625,-0.401875,-0.397187,-0.42,-0.455,-0.36625,-0.309687,-0.309375,-0.329687,-0.337187,-0.343437,-0.343125,-0.343437,-0.337187,-0.329687,-0.309375,-0.309687,-0.36625,-0.455,-0.42,-0.397187,-0.401875
2,-0.34125,-0.342812,-0.330625,-0.2525,-0.26875,-0.358437,-0.439687,0.097813,-0.399375,-0.416562,-0.4075,-0.410625,-0.407187,-0.410625,-0.316875,-0.310937,-0.33375,-0.355625,-0.3675,-0.358437,-0.338125,-0.311875,-0.313438,-0.4,-0.410625,-0.408125,-0.407188,-0.416562,-0.4025,0.07,-0.413125,-0.364688
3,-0.363125,-0.358125,-0.329688,-0.27,-0.316875,-0.3925,-0.489687,0.060625,-0.40125,-0.399687,-0.38625,-0.381875,-0.38,-0.36125,-0.291562,-0.294375,-0.314062,-0.334375,-0.335,-0.32875,-0.308438,-0.2925,-0.299688,-0.37625,-0.378437,-0.382813,-0.39125,-0.401563,-0.403437,0.056875,-0.482812,-0.385938
4,-0.34125,-0.349375,-0.3025,-0.254375,-0.310938,-0.365938,-0.414063,0.02125,-0.402187,-0.403125,-0.405625,-0.406875,-0.426875,-0.429688,-0.328438,-0.301562,-0.320313,-0.330312,-0.330938,-0.329375,-0.309687,-0.307813,-0.352188,-0.440313,-0.415312,-0.405,-0.408437,-0.399687,-0.406875,0.024062,-0.40625,-0.360625
5,-0.331875,-0.33125,-0.297812,-0.235938,-0.277813,-0.353125,-0.419375,0.065625,-0.397812,-0.402187,-0.409063,-0.409687,-0.40875,-0.4375,-0.329687,-0.2825,-0.293125,-0.318125,-0.321562,-0.312813,-0.285313,-0.28875,-0.363438,-0.434063,-0.40875,-0.40875,-0.405,-0.405,-0.40375,0.065312,-0.400938,-0.349063
6,-0.324375,-0.325312,-0.297188,-0.224687,-0.275,-0.338437,-0.412188,0.151875,-0.374687,-0.393125,-0.381875,-0.382813,-0.375625,-0.38375,-0.335313,-0.282187,-0.289063,-0.263125,-0.230312,-0.240625,-0.280937,-0.28625,-0.293438,-0.3725,-0.382813,-0.379375,-0.378437,-0.39,-0.38625,-0.233438,-0.037188,-0.34625
7,-0.285313,-0.282812,-0.244062,-0.279375,-0.365,-0.392188,0.092188,-0.398438,-0.396562,-0.394062,-0.39,-0.391875,-0.399375,-0.379063,-0.322812,-0.313125,-0.329062,-0.314687,-0.31625,-0.365313,-0.4025,-0.389375,-0.389063,-0.394688,-0.39625,-0.38875,0.115,-0.435,-0.364062,-0.312813,-0.233125,-0.279062
8,-0.355937,-0.3625,-0.355625,-0.321563,-0.270625,-0.319688,-0.389687,-0.414063,0.087187,-0.430312,-0.43625,-0.429688,-0.430312,-0.42,-0.481562,-0.444375,-0.325,-0.319375,-0.329687,-0.343437,-0.350937,-0.346563,-0.34375,-0.324687,-0.317187,-0.345625,-0.468125,-0.46875,-0.415,-0.431875,-0.433437,-0.436875
9,-0.3425,-0.355937,-0.339063,-0.26625,-0.29,-0.366875,-0.42625,0.080625,-0.424375,-0.40375,-0.405,-0.401563,-0.409375,-0.41875,-0.357188,-0.287813,-0.296562,-0.3175,-0.333125,-0.33625,-0.320313,-0.296875,-0.287188,-0.344063,-0.416875,-0.41125,-0.401875,-0.405313,-0.4025,-0.41625,0.090313,-0.449062
10,-0.338125,-0.331562,-0.321875,-0.242812,-0.245,-0.336563,-0.39875,0.089375,-0.3775,-0.391562,-0.383437,-0.372187,-0.37875,-0.378125,-0.304688,-0.273438,-0.280937,-0.301875,-0.31,-0.309062,-0.287188,-0.277812,-0.281563,-0.3575,-0.380938,-0.373437,-0.38,-0.388125,-0.385625,-0.009375,-0.31,-0.343437
11,-0.312813,-0.308438,-0.295312,-0.208125,-0.236563,-0.309687,-0.39375,0.088437,-0.345312,-0.353125,-0.351563,-0.347188,-0.353438,-0.354062,-0.274687,-0.266562,-0.283125,-0.310937,-0.31375,-0.305,-0.28125,-0.258438,-0.295312,-0.364062,-0.349375,-0.34875,-0.3475,-0.351875,-0.361875,0.071562,-0.355625,-0.301875
12,-0.313125,-0.311562,-0.29875,-0.226563,-0.27875,-0.3375,-0.401875,0.056875,-0.379687,-0.38625,-0.394062,-0.392187,-0.405625,-0.435313,-0.334375,-0.2825,-0.300313,-0.305937,-0.310313,-0.304688,-0.285312,-0.303125,-0.407812,-0.4275,-0.387812,-0.395938,-0.3925,-0.3775,-0.24625,-0.11,-0.349063,-0.308437
13,-0.3175,-0.31875,-0.285,-0.22125,-0.246562,-0.321875,-0.363125,0.133125,-0.382187,-0.3675,-0.355938,-0.359062,-0.357813,-0.375313,-0.318437,-0.25375,-0.257813,-0.280625,-0.299688,-0.299688,-0.280625,-0.257813,-0.25375,-0.318437,-0.375313,-0.357813,-0.359062,-0.355938,-0.3675,-0.382187,0.133125,-0.363125
14,-0.3075,-0.305937,-0.2725,-0.211875,-0.250938,-0.33125,-0.410937,0.118125,-0.382813,-0.36625,-0.365938,-0.361563,-0.364688,-0.372187,-0.329062,-0.267812,-0.271562,-0.2925,-0.31875,-0.321875,-0.305313,-0.286563,-0.262187,-0.287187,-0.364688,-0.366875,-0.365313,-0.361875,-0.363438,-0.36875,0.044062,-0.362188
15,-0.321562,-0.324687,-0.295938,-0.232812,-0.255,-0.3475,-0.41875,0.067812,-0.4125,-0.400625,-0.409375,-0.413125,-0.409687,-0.43375,-0.38625,-0.315313,-0.316563,-0.328438,-0.347188,-0.343437,-0.32125,-0.312813,-0.334375,-0.429062,-0.418438,-0.41,-0.416562,-0.400937,-0.401875,-0.179375,-0.204375,-0.355625
16,-0.35125,-0.3475,-0.334375,-0.258437,-0.300312,-0.371562,-0.420625,0.106563,-0.419062,-0.4175,-0.418125,-0.423438,-0.420625,-0.457188,-0.401875,-0.322188,-0.327187,-0.344063,-0.3425,-0.345312,-0.338437,-0.3225,-0.335312,-0.42875,-0.445,-0.421875,-0.42,-0.419375,-0.414063,-0.376875,0.038125,-0.38875
17,-0.345,-0.354688,-0.339687,-0.258125,-0.26375,-0.348437,-0.381875,0.088437,-0.401563,-0.395,-0.397188,-0.385625,-0.378125,-0.39,-0.315313,-0.276875,-0.284375,-0.295625,-0.313125,-0.301875,-0.29125,-0.275937,-0.286563,-0.377187,-0.378438,-0.387187,-0.390938,-0.39625,-0.39625,0.110937,-0.420625,-0.35625
18,-0.312813,-0.311875,-0.298438,-0.215625,-0.224375,-0.322812,-0.38,0.055938,-0.375313,-0.376562,-0.364062,-0.365938,-0.353125,-0.369063,-0.33,-0.270312,-0.293125,-0.30625,-0.32375,-0.30625,-0.293125,-0.270312,-0.33,-0.369063,-0.353125,-0.365938,-0.364062,-0.376562,-0.375313,0.055938,-0.38,-0.322812
19,-0.322812,-0.330312,-0.319063,-0.255,-0.2475,-0.347188,-0.420312,0.303438,-0.405625,-0.396562,-0.407812,-0.400312,-0.4,-0.455,-0.3675,-0.312187,-0.317187,-0.33875,-0.33875,-0.33875,-0.317187,-0.312187,-0.3675,-0.455,-0.4,-0.400312,-0.407812,-0.396562,-0.405625,0.303438,-0.420312,-0.347188
20,-0.3425,-0.350313,-0.341875,-0.2575,-0.265312,-0.358438,-0.389375,0.069688,-0.410937,-0.39375,-0.395312,-0.405,-0.4,-0.428125,-0.340312,-0.28625,-0.29125,-0.308125,-0.3175,-0.304062,-0.28625,-0.292812,-0.367813,-0.42875,-0.395625,-0.40375,-0.394375,-0.395625,-0.344687,-0.015938,-0.360938,-0.340625
21,-0.31625,-0.30875,-0.29875,-0.2125,-0.235,-0.328125,-0.3625,0.1175,-0.355625,-0.380313,-0.37375,-0.38125,-0.371875,-0.387187,-0.3825,-0.297812,-0.275625,-0.288125,-0.315,-0.30125,-0.280625,-0.275937,-0.3475,-0.39,-0.376562,-0.376563,-0.374062,-0.38375,-0.370937,0.150313,-0.39375,-0.344063
22,-0.323438,-0.33625,-0.309062,-0.244687,-0.234688,-0.333438,-0.355312,-0.180625,-0.126875,-0.374063,-0.380313,-0.380938,-0.375,-0.386562,-0.385625,-0.300938,-0.296875,-0.308125,-0.327187,-0.324375,-0.325,-0.304688,-0.290938,-0.32125,-0.39375,-0.38125,-0.378125,-0.38,-0.382187,-0.37,0.094375,-0.40125
23,-0.325625,-0.329062,-0.309063,-0.242812,-0.261562,-0.355313,-0.380938,0.02875,-0.39,-0.400625,-0.410625,-0.405,-0.414375,-0.455,-0.389375,-0.315938,-0.322812,-0.335,-0.357813,-0.351875,-0.329375,-0.322812,-0.320313,-0.42125,-0.446562,-0.4075,-0.40625,-0.41125,-0.397813,-0.1125,-0.26125,-0.35625
24,-0.353125,-0.346875,-0.334687,-0.252813,-0.279063,-0.360938,-0.40125,0.097188,-0.404375,-0.390312,-0.381875,-0.38625,-0.383125,-0.407188,-0.315313,-0.26125,-0.277812,-0.296875,-0.310313,-0.289687,-0.2675,-0.271875,-0.357812,-0.40625,-0.378438,-0.3875,-0.3825,-0.390938,-0.141875,-0.186562,-0.370937,-0.344063
25,-0.31125,-0.306563,-0.294375,-0.2225,-0.22375,-0.333125,-0.405937,0.3775,-0.3675,-0.381875,-0.369063,-0.370625,-0.374687,-0.375625,-0.310937,-0.273125,-0.284688,-0.32,-0.324375,-0.32,-0.284688,-0.273125,-0.310937,-0.375625,-0.374687,-0.370625,-0.369063,-0.381875,-0.3675,0.3775,-0.405937,-0.333125
26,-0.323125,-0.325938,-0.29375,-0.215937,-0.220938,-0.325312,-0.398125,0.0725,-0.397812,-0.389687,-0.384062,-0.389375,-0.386562,-0.415937,-0.34625,-0.303125,-0.30625,-0.317187,-0.320625,-0.31375,-0.297812,-0.320938,-0.404375,-0.396563,-0.390312,-0.379375,-0.392187,-0.38625,0.025,-0.378125,-0.33625,-0.26
27,-0.330625,-0.337812,-0.317813,-0.241563,-0.26125,-0.360938,-0.391875,0.081875,-0.422188,-0.418438,-0.4225,-0.421875,-0.424688,-0.469063,-0.410625,-0.3275,-0.33,-0.35375,-0.363125,-0.348125,-0.325625,-0.339063,-0.437187,-0.46,-0.422188,-0.422813,-0.420625,-0.414687,-0.312813,-0.042812,-0.3675,-0.344063
28,-0.375625,-0.370938,-0.355625,-0.285937,-0.287813,-0.39125,-0.449062,0.110625,-0.44375,-0.450938,-0.446875,-0.447812,-0.446562,-0.459063,-0.421562,-0.345313,-0.3475,-0.366562,-0.391875,-0.375937,-0.356875,-0.339375,-0.38375,-0.460938,-0.445313,-0.449062,-0.44625,-0.449688,-0.450625,0.1275,-0.479062,-0.398438
29,-0.404687,-0.404375,-0.395313,-0.328437,-0.317187,-0.418125,-0.451875,-0.02,-0.481562,-0.485938,-0.485313,-0.48625,-0.483438,-0.485625,-0.457188,-0.382813,-0.37625,-0.40375,-0.418125,-0.41375,-0.3825,-0.381563,-0.414688,-0.4925,-0.479062,-0.489063,-0.484688,-0.487188,-0.475625,0.018438,-0.513438,-0.4275
30,-0.430937,-0.431875,-0.4225,-0.340313,-0.3425,-0.441563,-0.4875,-0.136875,-0.467812,-0.5075,-0.521875,-0.512187,-0.502187,-0.514063,-0.53375,-0.441563,-0.405312,-0.411875,-0.429688,-0.425937,-0.410625,-0.407187,-0.46375,-0.540313,-0.502813,-0.5075,-0.515625,-0.519375,-0.5075,-0.179063,-0.42625,-0.473437
31,-0.437187,-0.440625,-0.419688,-0.353125,-0.350937,-0.445313,-0.473438,-0.160937,-0.365313,-0.50375,-0.49875,-0.498438,-0.49875,-0.535625,-0.48625,-0.385,-0.392812,-0.398438,-0.421562,-0.42125,-0.400625,-0.396875,-0.379687,-0.470625,-0.53875,-0.498437,-0.500625,-0.499375,-0.501875,-0.49125,-0.031563,-0.480938
32,-0.424063,-0.405,-0.401875,-0.314687,-0.299688,-0.385,-0.433125,0.145312,-0.3975,-0.467813,-0.45625,-0.446562,-0.449062,-0.459688,-0.394688,-0.33375,-0.347188,-0.370625,-0.37,-0.37125,-0.348437,-0.33625,-0.380937,-0.4575,-0.451562,-0.445,-0.455937,-0.466875,-0.473125,0.232812,-0.45125,-0.395312
33,-0.373125,-0.382813,-0.360313,-0.28,-0.275312,-0.371875,-0.429063,0.0325,-0.425312,-0.42,-0.41125,-0.415312,-0.409063,-0.4175,-0.349375,-0.313125,-0.335625,-0.359688,-0.37375,-0.347813,-0.318437,-0.325,-0.387187,-0.423125,-0.404687,-0.412813,-0.420937,-0.415,-0.082188,-0.336563,-0.382813,-0.325
34,-0.373125,-0.379063,-0.370312,-0.28875,-0.306563,-0.403125,-0.451562,-0.0225,-0.464687,-0.4475,-0.454375,-0.447812,-0.444687,-0.489063,-0.414063,-0.3525,-0.367188,-0.384688,-0.392812,-0.38875,-0.367813,-0.350625,-0.401563,-0.489062,-0.44875,-0.4475,-0.450312,-0.450938,-0.459687,-0.004375,-0.478125,-0.407188
35,-0.39375,-0.386875,-0.386562,-0.310313,-0.313125,-0.423438,-0.464063,0.066562,-0.469375,-0.461563,-0.46,-0.464375,-0.449062,-0.480937,-0.457188,-0.344063,-0.3375,-0.351875,-0.362813,-0.35,-0.333125,-0.363437,-0.477812,-0.474063,-0.449062,-0.463125,-0.461563,-0.458438,-0.324375,-0.104063,-0.435313,-0.405
36,-0.370625,-0.377813,-0.366562,-0.287187,-0.281875,-0.376562,-0.411563,-0.241562,-0.150625,-0.449062,-0.450625,-0.4375,-0.4425,-0.43625,-0.440937,-0.358438,-0.33375,-0.338125,-0.362813,-0.369062,-0.35,-0.331875,-0.34125,-0.416562,-0.441562,-0.436875,-0.44,-0.447812,-0.448125,-0.45875,0.11,-0.475312
37,-0.38875,-0.3825,-0.37625,-0.296875,-0.295312,-0.3625,-0.417812,-0.112187,-0.295313,-0.45,-0.443125,-0.435,-0.44,-0.433438,-0.434062,-0.365625,-0.345625,-0.35875,-0.388438,-0.386562,-0.365625,-0.34625,-0.355,-0.432187,-0.433438,-0.43875,-0.435625,-0.44125,-0.450625,-0.428438,0.029375,-0.430625
38,-0.399062,-0.415,-0.411563,-0.329062,-0.31875,-0.41375,-0.4475,-0.097187,-0.412187,-0.470937,-0.457812,-0.4525,-0.450312,-0.476563,-0.44625,-0.3525,-0.346563,-0.366562,-0.383125,-0.380625,-0.36,-0.349063,-0.36375,-0.46625,-0.470625,-0.447812,-0.455312,-0.459375,-0.470313,-0.118437,-0.388125,-0.44375
39,-0.386875,-0.39625,-0.375937,-0.302813,-0.286563,-0.384062,-0.425937,0.022812,-0.429688,-0.44625,-0.439687,-0.44125,-0.433125,-0.468125,-0.433125,-0.3375,-0.327187,-0.331875,-0.339375,-0.33375,-0.32875,-0.329375,-0.421875,-0.470625,-0.434375,-0.44125,-0.44,-0.444687,-0.458438,0.062187,-0.441563,-0.395312
40,-0.352188,-0.344687,-0.355625,-0.293125,-0.243125,-0.33875,-0.37125,-0.061562,-0.205625,-0.425313,-0.430625,-0.430313,-0.429375,-0.434375,-0.373125,-0.318438,-0.32875,-0.353125,-0.369375,-0.369375,-0.353125,-0.32875,-0.318438,-0.373125,-0.434375,-0.429375,-0.430313,-0.430625,-0.425313,-0.205625,-0.061562,-0.37125
41,-0.370313,-0.357813,-0.346563,-0.2625,-0.276563,-0.354375,-0.399687,-0.013125,-0.426563,-0.414063,-0.399375,-0.40125,-0.40625,-0.417188,-0.361875,-0.338125,-0.3675,-0.378438,-0.395,-0.374375,-0.36375,-0.333125,-0.380625,-0.421562,-0.399687,-0.403125,-0.4,-0.415938,-0.267812,-0.179687,-0.381563,-0.339375
42,-0.395,-0.404687,-0.37125,-0.313125,-0.331875,-0.434687,-0.508438,0.121875,-0.500937,-0.484688,-0.485313,-0.487813,-0.497813,-0.539375,-0.445,-0.384687,-0.393438,-0.416875,-0.422813,-0.410625,-0.38625,-0.392812,-0.478125,-0.5325,-0.496875,-0.483125,-0.480937,-0.489688,-0.337812,-0.078125,-0.459063,-0.422813
43,-0.429688,-0.430625,-0.41625,-0.333438,-0.35,-0.434687,-0.460625,-0.040625,-0.451562,-0.490938,-0.48625,-0.486875,-0.488438,-0.50875,-0.489062,-0.388438,-0.375313,-0.392187,-0.392812,-0.394687,-0.382813,-0.3725,-0.435313,-0.515,-0.490625,-0.489688,-0.486875,-0.485625,-0.489375,0.01875,-0.503438,-0.44875
44,-0.40375,-0.400312,-0.397812,-0.31375,-0.306875,-0.395312,-0.426875,-0.204688,-0.187812,-0.475937,-0.470937,-0.46,-0.461875,-0.462187,-0.470313,-0.391875,-0.359375,-0.362188,-0.365938,-0.368438,-0.363437,-0.357813,-0.382187,-0.467813,-0.46125,-0.464375,-0.459375,-0.466563,-0.480937,-0.354688,-0.027812,-0.44125
45,-0.3925,-0.387812,-0.374375,-0.302813,-0.285,-0.390938,-0.431875,-0.400313,-0.080625,-0.441875,-0.435313,-0.434062,-0.43,-0.429375,-0.443437,-0.395938,-0.3525,-0.3625,-0.378437,-0.388437,-0.379375,-0.361562,-0.356562,-0.38375,-0.44375,-0.4325,-0.426875,-0.43375,-0.436563,-0.440313,-0.22875,-0.237187
46,-0.390938,-0.391875,-0.390312,-0.320625,-0.3025,-0.399375,-0.415937,-0.064375,-0.421562,-0.455625,-0.449688,-0.450312,-0.452812,-0.487188,-0.430625,-0.345313,-0.3375,-0.350313,-0.365,-0.36,-0.345313,-0.335312,-0.37375,-0.482812,-0.46625,-0.45125,-0.45,-0.45125,-0.449375,0.002188,-0.475625,-0.410312
47,-0.364688,-0.357812,-0.358125,-0.28875,-0.246875,-0.341875,-0.403125,0.085625,-0.464688,-0.41125,-0.41625,-0.40125,-0.41,-0.425938,-0.356875,-0.298125,-0.3125,-0.327812,-0.338437,-0.320313,-0.299062,-0.315,-0.410625,-0.41375,-0.408125,-0.406875,-0.410937,-0.418438,-0.045938,-0.341875,-0.364063,-0.286875
48,-0.335312,-0.340625,-0.32875,-0.245312,-0.240313,-0.328125,-0.391875,0.07125,-0.406563,-0.40125,-0.4,-0.39625,-0.39375,-0.406563,-0.376562,-0.314687,-0.307187,-0.322812,-0.3375,-0.323437,-0.3125,-0.307187,-0.37,-0.407813,-0.3925,-0.397188,-0.399687,-0.4,-0.415625,0.0925,-0.406875,-0.341875
49,-0.340937,-0.3475,-0.34375,-0.2625,-0.25125,-0.321563,-0.379375,-0.050938,-0.405,-0.431875,-0.432187,-0.43375,-0.429062,-0.454063,-0.425,-0.358438,-0.375625,-0.385938,-0.401562,-0.395312,-0.379687,-0.357188,-0.394062,-0.454687,-0.438438,-0.429688,-0.43375,-0.431563,-0.429375,0.016563,-0.445313,-0.360938
50,-0.401562,-0.4,-0.402812,-0.339375,-0.32125,-0.425937,-0.457813,-0.031875,-0.490313,-0.467813,-0.478438,-0.479688,-0.483125,-0.519688,-0.463437,-0.369063,-0.374687,-0.381563,-0.394687,-0.381875,-0.376875,-0.36625,-0.445938,-0.522812,-0.48625,-0.480313,-0.47875,-0.467187,-0.494375,-0.013125,-0.477812,-0.430625
51,-0.4025,-0.395312,-0.379375,-0.295938,-0.306562,-0.399687,-0.410625,-0.109687,-0.304688,-0.430625,-0.430313,-0.42625,-0.426875,-0.439375,-0.407187,-0.318125,-0.314063,-0.314375,-0.330938,-0.331563,-0.313438,-0.311563,-0.325937,-0.416562,-0.438125,-0.425,-0.42875,-0.428438,-0.432813,-0.142187,-0.273438,-0.405625
52,-0.345,-0.340312,-0.326563,-0.260937,-0.245313,-0.3425,-0.380625,-0.078125,-0.2875,-0.400312,-0.397812,-0.39625,-0.390625,-0.408125,-0.382187,-0.310938,-0.301875,-0.320938,-0.334063,-0.328125,-0.319375,-0.2975,-0.325,-0.396563,-0.404063,-0.390625,-0.396875,-0.399688,-0.395625,-0.002187,-0.369375,-0.369062
53,-0.340313,-0.343125,-0.331563,-0.249062,-0.240625,-0.3325,-0.380625,-0.101563,-0.311875,-0.40875,-0.414063,-0.42125,-0.405625,-0.420313,-0.428125,-0.34,-0.324062,-0.337812,-0.354688,-0.35,-0.336563,-0.319375,-0.364062,-0.436562,-0.407188,-0.413438,-0.417188,-0.414688,-0.410625,-0.03625,-0.3725,-0.370625
54,-0.357812,-0.357188,-0.36,-0.28875,-0.27375,-0.362188,-0.389062,-0.052812,-0.346875,-0.417813,-0.42625,-0.429688,-0.4275,-0.469063,-0.423438,-0.323437,-0.326562,-0.339063,-0.352812,-0.345937,-0.332812,-0.319375,-0.373125,-0.469375,-0.441875,-0.429063,-0.425938,-0.422813,-0.415313,0.057813,-0.441563,-0.37875
55,-0.352812,-0.35625,-0.353125,-0.290625,-0.256562,-0.344688,-0.396562,0.174375,-0.38125,-0.42125,-0.41875,-0.408437,-0.412813,-0.425313,-0.380625,-0.319375,-0.318437,-0.339063,-0.345937,-0.335312,-0.316875,-0.322812,-0.404375,-0.421875,-0.408437,-0.412813,-0.418125,-0.421875,-0.093125,-0.126875,-0.373125,-0.313125
56,-0.347188,-0.358125,-0.356562,-0.291875,-0.25625,-0.335938,-0.393125,0.134688,-0.355625,-0.415937,-0.4075,-0.399375,-0.401563,-0.41,-0.382813,-0.3275,-0.328438,-0.362813,-0.373438,-0.349375,-0.325,-0.33875,-0.404375,-0.405,-0.400312,-0.400312,-0.414375,-0.417188,0.116875,-0.338125,-0.3725,-0.295937
57,-0.384687,-0.379687,-0.375625,-0.301563,-0.301875,-0.399687,-0.418125,-0.08125,-0.408125,-0.45,-0.45875,-0.449375,-0.453438,-0.479688,-0.488437,-0.377813,-0.342187,-0.348437,-0.362813,-0.359375,-0.339375,-0.358125,-0.446875,-0.495,-0.454062,-0.453125,-0.456875,-0.452188,-0.455625,0.011875,-0.484688,-0.396875
58,-0.37875,-0.371875,-0.374375,-0.290312,-0.289688,-0.383438,-0.390625,-0.161563,-0.246875,-0.415,-0.420313,-0.4075,-0.414375,-0.43875,-0.425313,-0.312813,-0.292188,-0.305,-0.31125,-0.313125,-0.306875,-0.293125,-0.30375,-0.413437,-0.44375,-0.414063,-0.409375,-0.418438,-0.413438,-0.3875,-0.019375,-0.394687
59,-0.3125,-0.32375,-0.317187,-0.24625,-0.217187,-0.308437,-0.34375,-0.052188,-0.2525,-0.37625,-0.383125,-0.373438,-0.364375,-0.366875,-0.354375,-0.280312,-0.27,-0.288125,-0.296562,-0.29625,-0.283125,-0.270625,-0.287188,-0.360937,-0.365313,-0.366875,-0.372813,-0.383125,-0.375938,-0.087188,-0.2175,-0.34
60,-0.307187,-0.307813,-0.302813,-0.240625,-0.200625,-0.295312,-0.33375,-0.03875,0.010312,-0.360937,-0.366562,-0.362813,-0.3525,-0.36625,-0.367813,-0.303125,-0.298437,-0.32625,-0.337187,-0.334688,-0.317813,-0.295312,-0.314375,-0.376875,-0.361563,-0.355625,-0.361875,-0.369375,-0.359688,0.299375,-0.3225,-0.32625
61,-0.342187,-0.346875,-0.350312,-0.268125,-0.27125,-0.376875,-0.393125,-0.030938,-0.405,-0.433125,-0.430937,-0.44125,-0.448125,-0.487813,-0.405937,-0.341563,-0.351875,-0.3775,-0.381875,-0.3775,-0.364375,-0.343437,-0.361875,-0.479062,-0.459688,-0.438437,-0.438438,-0.43375,-0.430313,0.031875,-0.447812,-0.383438
62,-0.37875,-0.38,-0.376563,-0.299688,-0.314375,-0.401875,-0.4825,0.09625,-0.445,-0.436875,-0.427813,-0.423438,-0.437187,-0.457188,-0.358437,-0.319375,-0.332812,-0.355,-0.360625,-0.341563,-0.32875,-0.320937,-0.421875,-0.455312,-0.422188,-0.42625,-0.433125,-0.433437,-0.027187,-0.381875,-0.413125,-0.362812
63,-0.357813,-0.365313,-0.355313,-0.27625,-0.285625,-0.391875,-0.431562,0.015,-0.42,-0.437187,-0.4375,-0.436875,-0.435938,-0.44875,-0.385,-0.33875,-0.357812,-0.38125,-0.390625,-0.38125,-0.357812,-0.33875,-0.385,-0.44875,-0.435938,-0.436875,-0.4375,-0.437187,-0.42,0.015,-0.431562,-0.391875
64,-0.390625,-0.386875,-0.370937,-0.288437,-0.310313,-0.409375,-0.479062,0.088125,-0.465313,-0.454375,-0.448125,-0.453438,-0.452187,-0.476563,-0.415,-0.36,-0.37,-0.392188,-0.407813,-0.38125,-0.364688,-0.366562,-0.451875,-0.472813,-0.445,-0.455625,-0.448438,-0.451875,-0.134375,-0.29,-0.420313,-0.38125
65,-0.403125,-0.410937,-0.395,-0.316875,-0.325,-0.415938,-0.450938,0.00875,-0.478125,-0.456563,-0.4575,-0.443437,-0.449375,-0.48375,-0.455938,-0.34375,-0.324375,-0.333438,-0.331563,-0.335,-0.320313,-0.365,-0.479687,-0.471875,-0.444375,-0.44875,-0.456875,-0.458125,-0.320938,-0.162813,-0.426875,-0.402812
66,-0.350313,-0.33875,-0.323438,-0.239375,-0.243437,-0.338125,-0.33625,-0.193437,-0.06375,-0.374687,-0.376875,-0.367813,-0.369375,-0.365938,-0.375938,-0.282188,-0.245313,-0.254687,-0.275312,-0.280625,-0.263438,-0.248125,-0.255625,-0.349063,-0.373438,-0.369062,-0.366875,-0.372813,-0.375313,-0.386875,0.159688,-0.382813
67,-0.29125,-0.290313,-0.279688,-0.191563,-0.189375,-0.275,-0.309063,-0.02875,-0.099688,-0.353125,-0.33625,-0.339063,-0.3425,-0.344375,-0.326875,-0.249687,-0.24875,-0.265625,-0.27,-0.272187,-0.267812,-0.24875,-0.248125,-0.31625,-0.343437,-0.344375,-0.340313,-0.33375,-0.353125,-0.260625,0.1425,-0.324375
68,-0.282813,-0.279687,-0.270625,-0.198437,-0.1775,-0.28,-0.310313,-0.011875,-0.314062,-0.359062,-0.355625,-0.352188,-0.355313,-0.38375,-0.34375,-0.273438,-0.268438,-0.289063,-0.300625,-0.294062,-0.284063,-0.27,-0.277188,-0.369375,-0.377187,-0.352188,-0.354375,-0.353437,-0.358125,-0.040937,-0.280937,-0.301562
69,-0.295,-0.299688,-0.294688,-0.2125,-0.22375,-0.298125,-0.334688,0.095937,-0.370625,-0.349375,-0.353125,-0.346875,-0.364375,-0.384687,-0.275625,-0.238125,-0.244687,-0.254687,-0.25625,-0.249687,-0.242812,-0.2425,-0.316562,-0.393125,-0.34875,-0.350313,-0.352813,-0.35125,-0.064375,-0.213125,-0.311562,-0.282188
70,-0.256875,-0.260312,-0.247812,-0.162813,-0.170625,-0.257187,-0.28375,0.16875,-0.3175,-0.309687,-0.305937,-0.306875,-0.309687,-0.309687,-0.227187,-0.18875,-0.208125,-0.22625,-0.234062,-0.216875,-0.200937,-0.192187,-0.266562,-0.311875,-0.307187,-0.306563,-0.3075,-0.309062,0.046875,-0.19625,-0.264375,-0.233437
71,-0.234062,-0.227187,-0.210313,-0.133437,-0.143438,-0.239375,-0.26375,0.157188,-0.283125,-0.285312,-0.274375,-0.279063,-0.278125,-0.2975,-0.243125,-0.189063,-0.195,-0.214375,-0.214687,-0.21125,-0.192187,-0.192813,-0.26625,-0.294062,-0.279063,-0.274687,-0.278437,-0.284687,-0.052812,-0.085625,-0.242188,-0.225938
72,-0.225,-0.230625,-0.217187,-0.144688,-0.151562,-0.249062,-0.283437,0.054062,-0.255313,-0.310313,-0.318437,-0.3225,-0.310625,-0.338125,-0.3375,-0.233125,-0.217813,-0.234375,-0.25625,-0.244687,-0.221563,-0.217813,-0.281563,-0.354062,-0.32125,-0.314687,-0.319063,-0.317187,-0.3125,0.157812,-0.34875,-0.267812
73,-0.258125,-0.260625,-0.254687,-0.192813,-0.168438,-0.26125,-0.2925,0.091562,-0.257813,-0.3175,-0.309062,-0.305625,-0.306562,-0.324062,-0.339063,-0.235312,-0.19875,-0.20625,-0.221563,-0.213437,-0.2,-0.21,-0.3075,-0.339063,-0.307813,-0.305938,-0.306563,-0.315313,-0.34875,0.228437,-0.351563,-0.27875
74,-0.23875,-0.2375,-0.228437,-0.149375,-0.133437,-0.215937,-0.247188,-0.00375,-0.117812,-0.288125,-0.2775,-0.280625,-0.275,-0.280937,-0.278437,-0.19375,-0.175625,-0.192813,-0.206875,-0.210625,-0.196562,-0.180937,-0.179375,-0.261875,-0.284063,-0.275313,-0.27875,-0.280313,-0.284687,-0.294062,0.185313,-0.27125
75,-0.220313,-0.22625,-0.215937,-0.135625,-0.149062,-0.239688,-0.270312,-0.005937,-0.153125,-0.295938,-0.299375,-0.300625,-0.292188,-0.292188,-0.297813,-0.2325,-0.228125,-0.248125,-0.271563,-0.267812,-0.245,-0.227187,-0.237812,-0.302188,-0.291562,-0.292812,-0.3,-0.299688,-0.295312,-0.001562,-0.159063,-0.263125
76,-0.274375,-0.285937,-0.284063,-0.229688,-0.2,-0.298438,-0.33125,0.006563,-0.352188,-0.36375,-0.373125,-0.367188,-0.376875,-0.412813,-0.352187,-0.292187,-0.289375,-0.308437,-0.320625,-0.314687,-0.29625,-0.29,-0.310625,-0.41375,-0.388438,-0.365313,-0.371875,-0.369375,-0.372813,0.073125,-0.391563,-0.311562
77,-0.320625,-0.32,-0.309687,-0.249375,-0.240938,-0.330938,-0.365312,0.069375,-0.390938,-0.372813,-0.370625,-0.373438,-0.38875,-0.401875,-0.292188,-0.264687,-0.269687,-0.290937,-0.296875,-0.282187,-0.269062,-0.260938,-0.339375,-0.405937,-0.37875,-0.3725,-0.3675,-0.379375,-0.07125,-0.258438,-0.3425,-0.2975
78,-0.295312,-0.29375,-0.290313,-0.21,-0.205313,-0.290937,-0.350625,0.101563,-0.359688,-0.359375,-0.3525,-0.359688,-0.34875,-0.350625,-0.269375,-0.250625,-0.270938,-0.290937,-0.295625,-0.276563,-0.255938,-0.254687,-0.326562,-0.35375,-0.355,-0.353437,-0.354375,-0.359062,0.107813,-0.373125,-0.312813,-0.224688
79,-0.30125,-0.295937,-0.285937,-0.196875,-0.210938,-0.304375,-0.335313,0.067187,-0.36375,-0.346563,-0.345625,-0.340625,-0.335938,-0.348125,-0.299062,-0.254687,-0.262812,-0.287188,-0.304062,-0.280625,-0.2575,-0.259062,-0.320313,-0.343437,-0.335,-0.344375,-0.34375,-0.349063,-0.210938,-0.097188,-0.315,-0.288125
80,-0.301562,-0.3025,-0.287813,-0.213125,-0.235938,-0.320313,-0.347813,0.057187,-0.335,-0.364688,-0.363125,-0.370625,-0.3575,-0.382188,-0.404063,-0.295312,-0.269063,-0.27875,-0.290312,-0.280312,-0.267812,-0.287813,-0.396875,-0.38625,-0.35875,-0.369687,-0.362188,-0.365313,-0.381563,0.11625,-0.365,-0.323125
81,-0.302813,-0.3025,-0.289688,-0.213437,-0.214687,-0.306875,-0.32625,-0.107188,-0.147188,-0.366562,-0.363438,-0.359688,-0.355312,-0.367188,-0.374062,-0.273125,-0.233437,-0.244063,-0.258438,-0.264062,-0.245625,-0.232187,-0.263438,-0.366563,-0.369687,-0.355937,-0.359375,-0.36125,-0.369063,-0.2975,0.047187,-0.335625
82,-0.270625,-0.28,-0.2675,-0.192813,-0.174062,-0.26875,-0.309687,0.041875,-0.237813,-0.34125,-0.334375,-0.329062,-0.320938,-0.330938,-0.325312,-0.246562,-0.231875,-0.248125,-0.2725,-0.263125,-0.245,-0.230625,-0.26375,-0.334688,-0.326562,-0.3225,-0.332187,-0.3375,-0.337812,0.071875,-0.268125,-0.298437
83,-0.276875,-0.279375,-0.269687,-0.196562,-0.174375,-0.270625,-0.308438,0.006563,-0.283437,-0.340625,-0.343125,-0.3425,-0.347188,-0.365313,-0.334375,-0.275625,-0.280937,-0.302188,-0.3275,-0.310937,-0.290313,-0.275,-0.296875,-0.371563,-0.3525,-0.340313,-0.345937,-0.342188,-0.333125,0.098437,-0.365313,-0.288125
84,-0.32125,-0.330625,-0.336875,-0.265312,-0.265312,-0.35625,-0.390312,0.044375,-0.420937,-0.415937,-0.425,-0.415625,-0.424062,-0.467187,-0.402812,-0.315938,-0.312813,-0.334375,-0.340625,-0.326562,-0.308438,-0.343437,-0.455938,-0.449375,-0.413125,-0.42125,-0.41875,-0.412187,-0.007188,-0.370625,-0.36625,-0.31375
85,-0.34375,-0.3475,-0.342813,-0.279375,-0.2475,-0.326563,-0.36625,0.083125,-0.158438,-0.404687,-0.40125,-0.402187,-0.401563,-0.415937,-0.3625,-0.298437,-0.31125,-0.33375,-0.34,-0.33375,-0.31125,-0.298437,-0.3625,-0.415937,-0.401563,-0.402187,-0.40125,-0.404687,-0.158438,0.083125,-0.36625,-0.326563
86,-0.342187,-0.348125,-0.335938,-0.257813,-0.250625,-0.335625,-0.381875,0.01875,-0.392187,-0.40625,-0.4025,-0.396875,-0.3925,-0.400312,-0.3425,-0.29375,-0.305937,-0.325625,-0.340625,-0.325625,-0.305937,-0.29375,-0.3425,-0.400312,-0.3925,-0.396875,-0.4025,-0.40625,-0.392187,0.01875,-0.381875,-0.335625
87,-0.339687,-0.346563,-0.333438,-0.255313,-0.255,-0.346563,-0.380938,0.03125,-0.39125,-0.404375,-0.405312,-0.402812,-0.398438,-0.42625,-0.400625,-0.317813,-0.31875,-0.326562,-0.338437,-0.329687,-0.320625,-0.313438,-0.38875,-0.429688,-0.397812,-0.402812,-0.407812,-0.403125,-0.41375,0.067813,-0.39875,-0.356875
88,-0.353125,-0.350313,-0.338125,-0.260938,-0.255313,-0.349063,-0.375625,0.03625,-0.271875,-0.38625,-0.385312,-0.382187,-0.38,-0.400625,-0.408438,-0.306875,-0.274375,-0.28125,-0.308437,-0.295312,-0.275937,-0.283437,-0.355625,-0.420938,-0.384375,-0.38125,-0.383125,-0.386562,-0.404375,0.20875,-0.424375,-0.365
89,-0.316563,-0.314375,-0.300313,-0.221562,-0.216875,-0.315,-0.364375,-0.24625,-0.048125,-0.375,-0.373438,-0.364688,-0.362813,-0.365313,-0.36625,-0.292188,-0.265,-0.279375,-0.305313,-0.310313,-0.293125,-0.273438,-0.265,-0.335938,-0.370937,-0.361563,-0.365,-0.369063,-0.375,-0.375938,0.171875,-0.47125
90,-0.31625,-0.3175,-0.316875,-0.232812,-0.225313,-0.305,-0.345625,-0.098125,-0.235625,-0.391563,-0.38875,-0.3925,-0.387812,-0.39875,-0.410625,-0.34,-0.328438,-0.349375,-0.368438,-0.363125,-0.343437,-0.325312,-0.359062,-0.414375,-0.393125,-0.388125,-0.390938,-0.392812,-0.387187,0.036563,-0.365,-0.338437
91,-0.368438,-0.374687,-0.374687,-0.299062,-0.273125,-0.37625,-0.4275,0.000313,-0.455938,-0.446562,-0.446562,-0.44375,-0.447187,-0.47375,-0.440625,-0.330625,-0.334375,-0.354375,-0.358438,-0.350313,-0.3325,-0.345,-0.465937,-0.465,-0.445625,-0.444687,-0.445313,-0.446562,-0.2425,-0.219062,-0.410938,-0.33625
92,-0.357188,-0.36375,-0.363125,-0.2925,-0.259375,-0.34125,-0.39625,0.063125,-0.433125,-0.420938,-0.41125,-0.405,-0.40375,-0.429062,-0.362188,-0.301562,-0.309687,-0.319063,-0.325625,-0.316875,-0.305625,-0.30875,-0.405313,-0.4175,-0.402813,-0.405937,-0.415938,-0.420313,-0.015313,-0.355937,-0.378438,-0.29875
93,-0.329375,-0.330938,-0.322187,-0.239687,-0.209063,-0.3025,-0.359062,0.10875,-0.372813,-0.370937,-0.362188,-0.357188,-0.355625,-0.363125,-0.33125,-0.254062,-0.260625,-0.275312,-0.3,-0.275312,-0.260625,-0.254062,-0.33125,-0.363125,-0.355625,-0.357188,-0.362188,-0.370937,-0.372813,0.10875,-0.359062,-0.3025
94,-0.305,-0.299375,-0.296875,-0.205625,-0.166875,-0.266875,-0.298125,-0.0375,-0.236875,-0.329062,-0.329063,-0.329062,-0.329375,-0.354375,-0.3275,-0.260625,-0.264375,-0.283125,-0.298438,-0.299375,-0.27625,-0.2575,-0.274375,-0.345625,-0.340937,-0.335,-0.326875,-0.327812,-0.32875,0.038125,-0.305313,-0.295
95,-0.30875,-0.319375,-0.31375,-0.241563,-0.22625,-0.325,-0.370313,-0.059687,-0.197812,-0.417813,-0.41875,-0.425,-0.423125,-0.449688,-0.4575,-0.3425,-0.32375,-0.340625,-0.350938,-0.34875,-0.336563,-0.32125,-0.379063,-0.475,-0.43125,-0.426562,-0.422813,-0.419062,-0.440625,0.202812,-0.41875,-0.364375
96,-0.359688,-0.35875,-0.349063,-0.282813,-0.265,-0.369062,-0.425313,-0.059687,-0.273125,-0.436875,-0.429062,-0.42875,-0.428125,-0.451875,-0.421562,-0.345937,-0.335938,-0.356562,-0.375313,-0.371875,-0.355313,-0.334688,-0.350625,-0.432187,-0.44875,-0.426875,-0.429062,-0.430937,-0.434687,-0.105,-0.241562,-0.405937
97,-0.377187,-0.376875,-0.364688,-0.281875,-0.2775,-0.361562,-0.401562,-0.15625,-0.256875,-0.441875,-0.440937,-0.436875,-0.4325,-0.439687,-0.41625,-0.339063,-0.331875,-0.35125,-0.370937,-0.369687,-0.344375,-0.330312,-0.353125,-0.430625,-0.436875,-0.434375,-0.4375,-0.438125,-0.445938,0.022187,-0.4275,-0.39625
98,-0.3775,-0.3725,-0.356562,-0.276875,-0.2725,-0.367188,-0.40375,-0.105,-0.364062,-0.429688,-0.430625,-0.418125,-0.415625,-0.424375,-0.414688,-0.348125,-0.351563,-0.365938,-0.386875,-0.379062,-0.3625,-0.350937,-0.352188,-0.432187,-0.418125,-0.415312,-0.420625,-0.43125,-0.43125,-0.085625,-0.384375,-0.389687
99,-0.385,-0.38625,-0.367813,-0.300938,-0.318125,-0.410313,-0.490938,-0.01375,-0.455312,-0.451563,-0.455312,-0.445625,-0.462188,-0.494687,-0.404687,-0.349375,-0.360938,-0.376875,-0.379687,-0.378125,-0.36125,-0.350313,-0.390312,-0.4925,-0.466563,-0.447187,-0.453438,-0.451562,-0.462188,0.015,-0.51875,-0.411875
100,-0.38125,-0.384062,-0.372813,-0.285937,-0.27875,-0.385625,-0.445,0.034375,-0.445313,-0.438125,-0.43,-0.425938,-0.425312,-0.435938,-0.37125,-0.300625,-0.31,-0.32,-0.3275,-0.314687,-0.29875,-0.33125,-0.425938,-0.433437,-0.4225,-0.430313,-0.435625,-0.430938,0.028438,-0.461875,-0.402812,-0.309687
101,-0.3325,-0.332188,-0.330937,-0.256875,-0.219687,-0.311562,-0.362812,0.209687,-0.327812,-0.3675,-0.3575,-0.349063,-0.344375,-0.355,-0.295312,-0.246563,-0.257187,-0.27375,-0.285313,-0.269687,-0.252813,-0.250625,-0.318438,-0.350937,-0.348438,-0.3475,-0.360625,-0.369375,-0.003125,-0.130313,-0.338437,-0.280937
102,-0.290937,-0.293438,-0.278437,-0.192187,-0.18875,-0.282813,-0.325,0.030625,-0.2225,-0.351875,-0.358125,-0.355,-0.351875,-0.36125,-0.381562,-0.305312,-0.272812,-0.278437,-0.299062,-0.286875,-0.272812,-0.28375,-0.36,-0.374375,-0.3525,-0.353125,-0.355,-0.354688,-0.380938,0.239375,-0.390625,-0.305
103,-0.307187,-0.313125,-0.30375,-0.235312,-0.224375,-0.325,-0.345313,-0.252187,-0.041875,-0.381875,-0.384687,-0.377187,-0.37625,-0.395938,-0.39875,-0.293437,-0.265938,-0.27375,-0.293125,-0.298125,-0.2825,-0.27,-0.269375,-0.346563,-0.411875,-0.377187,-0.379062,-0.379687,-0.38625,-0.389687,0.121563,-0.38625
104,-0.304688,-0.305938,-0.300625,-0.23625,-0.199375,-0.287188,-0.3275,-0.162813,-0.08,-0.369063,-0.371563,-0.367813,-0.349063,-0.35625,-0.3375,-0.265,-0.258125,-0.279063,-0.299375,-0.300625,-0.282813,-0.26125,-0.25875,-0.327187,-0.359688,-0.34625,-0.368125,-0.370625,-0.370937,-0.24875,0.005313,-0.33125
105,-0.304688,-0.307813,-0.293125,-0.219688,-0.20625,-0.288438,-0.329063,-0.015313,-0.310938,-0.366563,-0.369375,-0.362188,-0.354688,-0.3675,-0.327187,-0.270312,-0.280313,-0.300313,-0.314687,-0.30625,-0.287813,-0.273438,-0.29125,-0.368437,-0.358438,-0.354375,-0.369375,-0.368438,-0.359375,0.078125,-0.392812,-0.307187
106,-0.317187,-0.317187,-0.305,-0.240625,-0.232812,-0.330625,-0.354375,0.064062,-0.382187,-0.378437,-0.375,-0.382813,-0.381875,-0.427813,-0.32125,-0.26375,-0.270938,-0.283125,-0.296875,-0.280937,-0.268125,-0.265938,-0.357188,-0.42375,-0.375625,-0.381875,-0.375625,-0.3775,-0.140938,-0.1825,-0.339063,-0.31375
107,-0.295938,-0.292812,-0.277813,-0.195625,-0.205625,-0.305,-0.332187,0.115,-0.36125,-0.356562,-0.346563,-0.343437,-0.348438,-0.365313,-0.280937,-0.239375,-0.252187,-0.272187,-0.284687,-0.265938,-0.247187,-0.242188,-0.30875,-0.36375,-0.344375,-0.345,-0.348125,-0.357188,-0.135937,-0.116562,-0.31625,-0.286563
108,-0.285312,-0.289688,-0.289375,-0.204063,-0.2025,-0.305625,-0.356875,0.105313,-0.317813,-0.376875,-0.365,-0.365,-0.361875,-0.374375,-0.330312,-0.27375,-0.28,-0.300938,-0.31875,-0.300938,-0.28,-0.27375,-0.330312,-0.374375,-0.361875,-0.365,-0.365,-0.376875,-0.317813,0.105313,-0.356875,-0.305625
109,-0.32125,-0.327187,-0.321875,-0.23375,-0.241563,-0.339063,-0.39,-0.005313,-0.300313,-0.418438,-0.418125,-0.421562,-0.418125,-0.445313,-0.433437,-0.3375,-0.33125,-0.346875,-0.362813,-0.352812,-0.338125,-0.330625,-0.391563,-0.453125,-0.422812,-0.423125,-0.420938,-0.415625,-0.427188,0.170938,-0.4575,-0.355938
110,-0.36875,-0.366875,-0.361562,-0.283125,-0.27375,-0.3675,-0.410312,-0.13125,-0.20875,-0.439063,-0.438125,-0.436875,-0.43625,-0.458438,-0.447187,-0.335938,-0.313125,-0.329063,-0.340937,-0.3375,-0.320313,-0.314687,-0.368437,-0.475,-0.442813,-0.435625,-0.436562,-0.440625,-0.439687,0.129687,-0.462812,-0.397188
111,-0.356875,-0.359688,-0.349375,-0.2575,-0.254687,-0.346875,-0.383437,-0.159063,0.051875,-0.415625,-0.420938,-0.410625,-0.406563,-0.405,-0.416875,-0.33625,-0.302188,-0.3125,-0.327812,-0.331563,-0.315937,-0.3,-0.327187,-0.414063,-0.40375,-0.407187,-0.410937,-0.417812,-0.418125,-0.129688,0.031563,-0.397187
112,-0.345625,-0.3525,-0.349063,-0.273438,-0.247187,-0.317187,-0.3725,-0.236875,-0.106562,-0.418125,-0.409063,-0.400625,-0.40375,-0.413125,-0.39375,-0.329062,-0.322812,-0.349688,-0.365625,-0.374063,-0.354062,-0.334688,-0.32,-0.364062,-0.418125,-0.401875,-0.403125,-0.406563,-0.415312,-0.439688,0.129375,-0.424375
113,-0.372187,-0.38,-0.38125,-0.305937,-0.281563,-0.387187,-0.430937,0.034062,-0.388125,-0.454687,-0.459062,-0.459687,-0.465937,-0.504063,-0.395312,-0.350938,-0.355625,-0.375625,-0.389062,-0.37875,-0.356562,-0.3525,-0.380938,-0.499062,-0.472812,-0.457812,-0.459375,-0.455312,-0.461563,0.12375,-0.4525,-0.399062
114,-0.384687,-0.390938,-0.377187,-0.290625,-0.27875,-0.375625,-0.405,0.034063,-0.425313,-0.408437,-0.404688,-0.409063,-0.412188,-0.438438,-0.335625,-0.293125,-0.295625,-0.314687,-0.31875,-0.3025,-0.292813,-0.305,-0.413125,-0.43,-0.401875,-0.408125,-0.406563,-0.410625,0.050313,-0.447187,-0.379063,-0.316875
115,-0.320313,-0.322187,-0.31,-0.228125,-0.2025,-0.29375,-0.346875,0.163125,-0.27125,-0.36875,-0.36375,-0.365,-0.365313,-0.37375,-0.304063,-0.264062,-0.282187,-0.301562,-0.306875,-0.301562,-0.282187,-0.264062,-0.304063,-0.37375,-0.365313,-0.365,-0.36375,-0.36875,-0.27125,0.163125,-0.346875,-0.29375
116,-0.31375,-0.314062,-0.29125,-0.208438,-0.227812,-0.31875,-0.393438,0.085938,-0.34625,-0.361875,-0.357188,-0.365625,-0.369375,-0.387812,-0.354062,-0.300625,-0.313438,-0.33125,-0.351563,-0.3375,-0.316875,-0.304688,-0.324375,-0.386875,-0.377187,-0.365,-0.3575,-0.36375,-0.3575,0.123125,-0.431875,-0.323125
117,-0.353125,-0.35375,-0.340313,-0.2575,-0.279688,-0.357812,-0.385,0.034687,-0.36625,-0.414375,-0.415,-0.41,-0.411563,-0.442813,-0.449062,-0.333438,-0.310313,-0.319063,-0.3225,-0.320313,-0.313438,-0.316875,-0.405312,-0.46125,-0.41625,-0.408437,-0.414375,-0.417188,-0.419688,0.130625,-0.439375,-0.365625
118,-0.327188,-0.32,-0.306875,-0.22,-0.216875,-0.316875,-0.333438,-0.0725,-0.159688,-0.370625,-0.357813,-0.350937,-0.349375,-0.366875,-0.364062,-0.27875,-0.245312,-0.26125,-0.28125,-0.281875,-0.257187,-0.245313,-0.290625,-0.368437,-0.363125,-0.349063,-0.351875,-0.359062,-0.3725,0.010312,-0.240313,-0.330312
119,-0.286875,-0.291562,-0.28,-0.221875,-0.175938,-0.271875,-0.317187,-0.010937,-0.235,-0.357188,-0.346563,-0.340625,-0.340937,-0.3475,-0.3475,-0.267188,-0.25625,-0.270938,-0.28875,-0.28375,-0.265625,-0.254063,-0.294688,-0.358125,-0.341563,-0.339687,-0.343125,-0.351563,-0.352188,0.13875,-0.377187,-0.305938
120,-0.3,-0.303125,-0.283437,-0.215312,-0.201875,-0.306875,-0.340625,-0.05125,-0.272188,-0.377813,-0.37625,-0.38,-0.373438,-0.393125,-0.399063,-0.3125,-0.295625,-0.30875,-0.333438,-0.330938,-0.303125,-0.29125,-0.33125,-0.410313,-0.381875,-0.378125,-0.377813,-0.375625,-0.378437,0.016875,-0.335312,-0.334062
121,-0.334375,-0.340312,-0.333438,-0.268125,-0.242812,-0.339063,-0.369063,0.041563,-0.395938,-0.393438,-0.393438,-0.39125,-0.396875,-0.43625,-0.344375,-0.269375,-0.267812,-0.281563,-0.295625,-0.281563,-0.267812,-0.269375,-0.344375,-0.43625,-0.396875,-0.39125,-0.393438,-0.393438,-0.395938,0.041563,-0.369063,-0.339063
122,-0.291562,-0.294062,-0.293125,-0.219375,-0.188125,-0.288438,-0.325938,0.145938,-0.365313,-0.361875,-0.355312,-0.348437,-0.347187,-0.35375,-0.267188,-0.2425,-0.262812,-0.29125,-0.295625,-0.279375,-0.254063,-0.241875,-0.305625,-0.355937,-0.34625,-0.349375,-0.36,-0.359375,0.026875,-0.244062,-0.3075,-0.2425
123,-0.297188,-0.30125,-0.289688,-0.199062,-0.205937,-0.310937,-0.359688,0.100938,-0.374687,-0.363438,-0.36,-0.3525,-0.344687,-0.359688,-0.291875,-0.25125,-0.265938,-0.278437,-0.286875,-0.270313,-0.259375,-0.25375,-0.3425,-0.351563,-0.347188,-0.355313,-0.360625,-0.36875,0.043125,-0.324375,-0.328125,-0.255625
124,-0.294375,-0.305313,-0.304063,-0.236875,-0.21625,-0.32,-0.358438,0.019687,-0.158438,-0.390625,-0.390938,-0.39625,-0.39375,-0.42375,-0.405625,-0.3075,-0.30875,-0.323125,-0.339687,-0.328438,-0.317813,-0.298125,-0.363438,-0.431562,-0.401875,-0.398125,-0.390938,-0.392812,-0.3975,0.308437,-0.42,-0.34125
125,-0.35,-0.34875,-0.344063,-0.26625,-0.26375,-0.367813,-0.379063,-0.019375,-0.319063,-0.4175,-0.409688,-0.408437,-0.401563,-0.429688,-0.426875,-0.316875,-0.2925,-0.307187,-0.323125,-0.3175,-0.3025,-0.294375,-0.337812,-0.443438,-0.419688,-0.401563,-0.408437,-0.412813,-0.415625,-0.005937,-0.329375,-0.372187
126,-0.337187,-0.330938,-0.32375,-0.250313,-0.237812,-0.335,-0.350313,-0.265312,-0.028125,-0.394687,-0.39,-0.382813,-0.380313,-0.379375,-0.369375,-0.289375,-0.280625,-0.299688,-0.316875,-0.3275,-0.309687,-0.286563,-0.278125,-0.330625,-0.382813,-0.377187,-0.381563,-0.386875,-0.391562,-0.398438,0.145312,-0.413125
127,-0.330938,-0.325625,-0.3225,-0.2325,-0.236562,-0.33,-0.352188,-0.050625,-0.2975,-0.38375,-0.379687,-0.375625,-0.369375,-0.373125,-0.356875,-0.299375,-0.3025,-0.314063,-0.330312,-0.327812,-0.31125,-0.300938,-0.304688,-0.363437,-0.37,-0.372187,-0.373438,-0.3825,-0.38375,-0.142187,-0.204062,-0.349375
128,-0.330312,-0.34625,-0.339375,-0.262188,-0.269687,-0.35625,-0.393125,0.018437,-0.419375,-0.4125,-0.40875,-0.406875,-0.414063,-0.444687,-0.354375,-0.302188,-0.32125,-0.343437,-0.346875,-0.339063,-0.314062,-0.308125,-0.377813,-0.450625,-0.406563,-0.407812,-0.404688,-0.415625,-0.2775,-0.133438,-0.371563,-0.345
129,-0.345,-0.35375,-0.341875,-0.264063,-0.260625,-0.354375,-0.3725,0.0875,-0.388438,-0.375625,-0.375625,-0.375,-0.381562,-0.409375,-0.33625,-0.26,-0.264062,-0.282188,-0.290938,-0.276875,-0.25625,-0.275312,-0.382813,-0.397188,-0.379375,-0.37125,-0.377187,-0.37625,-0.008125,-0.301562,-0.3575,-0.325
130,-0.295625,-0.30375,-0.295,-0.234688,-0.195937,-0.298125,-0.327187,0.095625,-0.35125,-0.35375,-0.353437,-0.349063,-0.341563,-0.346875,-0.310625,-0.2525,-0.257187,-0.276875,-0.286563,-0.279063,-0.257813,-0.2525,-0.300313,-0.345313,-0.343437,-0.347188,-0.352188,-0.354688,-0.363125,0.121562,-0.345625,-0.306875
131,-0.288437,-0.304375,-0.298438,-0.21875,-0.200312,-0.297188,-0.355312,0.060312,-0.390312,-0.365313,-0.368125,-0.37,-0.363125,-0.380937,-0.335,-0.294688,-0.29875,-0.321875,-0.335938,-0.319063,-0.294688,-0.294688,-0.355,-0.375625,-0.365,-0.370938,-0.36625,-0.365625,-0.195625,-0.144375,-0.332188,-0.269062
132,-0.345625,-0.354062,-0.340312,-0.26625,-0.268438,-0.377187,-0.42625,0.010312,-0.343125,-0.4275,-0.43,-0.436875,-0.431563,-0.44875,-0.453438,-0.361563,-0.335,-0.349375,-0.374063,-0.3575,-0.34625,-0.340625,-0.402813,-0.466875,-0.435938,-0.43125,-0.438125,-0.425,-0.429375,0.1175,-0.46375,-0.393438
133,-0.382813,-0.39,-0.377813,-0.299062,-0.29375,-0.36875,-0.411563,-0.115625,-0.299688,-0.424062,-0.420938,-0.41375,-0.402812,-0.43,-0.391563,-0.284375,-0.278437,-0.283437,-0.2925,-0.2925,-0.28125,-0.274687,-0.303125,-0.414375,-0.423438,-0.404063,-0.414063,-0.421562,-0.42625,-0.009375,-0.404063,-0.406875
134,-0.3,-0.293438,-0.278125,-0.188125,-0.183437,-0.279063,-0.32,-0.0925,-0.134062,-0.325625,-0.325625,-0.319687,-0.31,-0.307187,-0.286875,-0.22625,-0.223437,-0.237813,-0.265937,-0.265937,-0.237813,-0.223437,-0.22625,-0.286875,-0.307187,-0.31,-0.319687,-0.325625,-0.325625,-0.134062,-0.0925,-0.32
135,-0.2725,-0.28125,-0.265625,-0.17875,-0.189375,-0.27625,-0.317813,0.034063,-0.2575,-0.332188,-0.333438,-0.333125,-0.324375,-0.329375,-0.293125,-0.260938,-0.271875,-0.299062,-0.323438,-0.319375,-0.28625,-0.263438,-0.265938,-0.315,-0.327187,-0.328125,-0.334062,-0.33375,-0.32625,0.103438,-0.338437,-0.295625
136,-0.31875,-0.330938,-0.329375,-0.251875,-0.275,-0.372187,-0.419375,0.012187,-0.44875,-0.429688,-0.436875,-0.43375,-0.438438,-0.466875,-0.370313,-0.332812,-0.340937,-0.363438,-0.373437,-0.35,-0.335938,-0.343437,-0.438438,-0.452187,-0.431875,-0.437188,-0.434375,-0.425938,0.015312,-0.461563,-0.377813,-0.315938
137,-0.363438,-0.373438,-0.367813,-0.277812,-0.287188,-0.367813,-0.398125,0.059062,-0.39,-0.377813,-0.375313,-0.379063,-0.392187,-0.396563,-0.31125,-0.272812,-0.287813,-0.301875,-0.299688,-0.28375,-0.27625,-0.320938,-0.40125,-0.389375,-0.378125,-0.374375,-0.38,-0.402812,0.057187,-0.380938,-0.365625,-0.274687
138,-0.315625,-0.31625,-0.304063,-0.220313,-0.220313,-0.32625,-0.3675,0.047187,-0.395,-0.387187,-0.38,-0.379375,-0.371875,-0.377187,-0.359375,-0.302188,-0.295938,-0.313437,-0.3275,-0.313437,-0.295938,-0.302188,-0.359375,-0.377187,-0.371875,-0.379375,-0.38,-0.387187,-0.395,0.047187,-0.3675,-0.32625
139,-0.335313,-0.334063,-0.327188,-0.24625,-0.238125,-0.349063,-0.401563,-0.054375,-0.328438,-0.404062,-0.398438,-0.407188,-0.402812,-0.417188,-0.42125,-0.351563,-0.349375,-0.365625,-0.385312,-0.377187,-0.357812,-0.345625,-0.370937,-0.433125,-0.406563,-0.404063,-0.405312,-0.400625,-0.398438,0.034063,-0.439062,-0.368438
140,-0.389375,-0.39625,-0.384375,-0.301875,-0.302813,-0.391562,-0.436875,-0.06,-0.434062,-0.468437,-0.471563,-0.47,-0.46,-0.482188,-0.4725,-0.36375,-0.340625,-0.3475,-0.353437,-0.350625,-0.341563,-0.34625,-0.429688,-0.494688,-0.463125,-0.465,-0.471563,-0.47,-0.4675,0.01875,-0.495937,-0.420625
141,-0.362188,-0.36,-0.345313,-0.2675,-0.249375,-0.347813,-0.395312,-0.103437,-0.103125,-0.406875,-0.399063,-0.3925,-0.3925,-0.399687,-0.371563,-0.296563,-0.294062,-0.311562,-0.318438,-0.318438,-0.311562,-0.294062,-0.296563,-0.371563,-0.399687,-0.3925,-0.3925,-0.399063,-0.406875,-0.103125,-0.103437,-0.395312
142,-0.321562,-0.329375,-0.3125,-0.228437,-0.2175,-0.319375,-0.349375,-0.057187,-0.308125,-0.37625,-0.373437,-0.363438,-0.36125,-0.370313,-0.332188,-0.29375,-0.304688,-0.335938,-0.351875,-0.347188,-0.322187,-0.30125,-0.293437,-0.359375,-0.365,-0.363125,-0.3675,-0.372187,-0.377187,0.04375,-0.40375,-0.339687
143,-0.350313,-0.361562,-0.3575,-0.278437,-0.301562,-0.392188,-0.429062,-0.0125,-0.462812,-0.45875,-0.456562,-0.460938,-0.45375,-0.495937,-0.4175,-0.365938,-0.379687,-0.401875,-0.413125,-0.393125,-0.376562,-0.370313,-0.464375,-0.475625,-0.454062,-0.46125,-0.455938,-0.454687,-0.101563,-0.375625,-0.413125,-0.362812
144,-0.400937,-0.417188,-0.41125,-0.341563,-0.310313,-0.422188,-0.4725,0.024688,-0.468437,-0.45875,-0.459687,-0.449687,-0.455,-0.474688,-0.395312,-0.345,-0.357813,-0.379063,-0.369062,-0.353125,-0.346875,-0.444063,-0.465937,-0.451875,-0.451875,-0.461563,-0.46,-0.305625,-0.167187,-0.431875,-0.392812,-0.2925
145,-0.385,-0.380938,-0.375625,-0.314063,-0.285313,-0.351563,-0.408125,-0.080938,-0.211563,-0.445313,-0.447812,-0.441562,-0.437187,-0.435,-0.400625,-0.334688,-0.3425,-0.3575,-0.371875,-0.368125,-0.352812,-0.340312,-0.338125,-0.422813,-0.435625,-0.435625,-0.4425,-0.448438,-0.443125,0.0975,-0.388125,-0.400312
146,-0.368125,-0.3725,-0.370625,-0.284375,-0.279062,-0.375625,-0.427812,0.10875,-0.35875,-0.446875,-0.45625,-0.459063,-0.450938,-0.461875,-0.4625,-0.388125,-0.373125,-0.388438,-0.392812,-0.383125,-0.371562,-0.41375,-0.47125,-0.459688,-0.453125,-0.455938,-0.454687,-0.444687,0.103437,-0.3625,-0.404063,-0.327812
147,-0.415,-0.409063,-0.407187,-0.325,-0.320938,-0.420625,-0.44125,-0.1275,-0.353437,-0.472188,-0.465312,-0.465937,-0.455312,-0.476563,-0.5075,-0.435312,-0.347188,-0.347188,-0.359375,-0.356562,-0.345937,-0.353437,-0.447812,-0.507813,-0.473437,-0.454687,-0.467188,-0.465625,-0.474063,-0.190937,-0.288437,-0.435
148,-0.373125,-0.37375,-0.365938,-0.30125,-0.270625,-0.361875,-0.382187,-0.31375,-0.0575,-0.418438,-0.418125,-0.4125,-0.403125,-0.413125,-0.410937,-0.31875,-0.301563,-0.316563,-0.328125,-0.337187,-0.32625,-0.311563,-0.300313,-0.337813,-0.425,-0.40375,-0.407188,-0.413437,-0.420313,-0.414063,0.09125,-0.458437
149,-0.337813,-0.34,-0.3325,-0.2675,-0.233438,-0.3275,-0.356875,-0.095,-0.231875,-0.389375,-0.378125,-0.375,-0.36875,-0.38125,-0.339375,-0.282187,-0.284375,-0.300312,-0.322812,-0.315313,-0.297188,-0.275937,-0.292187,-0.371875,-0.374687,-0.369687,-0.37625,-0.381563,-0.39125,0.10125,-0.41875,-0.349688
150,-0.324687,-0.33125,-0.33,-0.254687,-0.237813,-0.322187,-0.377813,0.072813,-0.380313,-0.415937,-0.420313,-0.422188,-0.42875,-0.457187,-0.395625,-0.344687,-0.350313,-0.365313,-0.375625,-0.367813,-0.3525,-0.343437,-0.383125,-0.457187,-0.433437,-0.420625,-0.420313,-0.417812,-0.430937,0.1375,-0.397812,-0.338125
151,-0.375,-0.386875,-0.36625,-0.297812,-0.295313,-0.389062,-0.435625,-0.004375,-0.443125,-0.425313,-0.430313,-0.42375,-0.440625,-0.4425,-0.318125,-0.295625,-0.299688,-0.320625,-0.325625,-0.307187,-0.2975,-0.295938,-0.380938,-0.457187,-0.425625,-0.42875,-0.427188,-0.428438,-0.073125,-0.3925,-0.400937,-0.342187
152,-0.325938,-0.318438,-0.3025,-0.215,-0.224063,-0.321875,-0.399687,0.1475,-0.402812,-0.39,-0.386875,-0.388125,-0.386562,-0.391563,-0.3225,-0.267812,-0.28625,-0.307813,-0.3225,-0.301875,-0.279063,-0.273438,-0.345313,-0.395,-0.384687,-0.387812,-0.385938,-0.393125,-0.209375,-0.073125,-0.358125,-0.296562
153,-0.32,-0.319688,-0.3075,-0.235938,-0.230312,-0.322187,-0.349375,0.083125,-0.3675,-0.375938,-0.374687,-0.363125,-0.363438,-0.372187,-0.319375,-0.265938,-0.274375,-0.3025,-0.3075,-0.3025,-0.274375,-0.265938,-0.319375,-0.372187,-0.363438,-0.363125,-0.374687,-0.375938,-0.3675,0.083125,-0.349375,-0.322187
154,-0.313125,-0.326562,-0.313125,-0.240312,-0.249063,-0.343437,-0.36625,0.044375,-0.399375,-0.39875,-0.407188,-0.401875,-0.406563,-0.428125,-0.415312,-0.3175,-0.311875,-0.327812,-0.344375,-0.327812,-0.311875,-0.3175,-0.415312,-0.428125,-0.406563,-0.401875,-0.407188,-0.39875,-0.399375,0.044375,-0.36625,-0.343437
155,-0.354375,-0.359688,-0.358125,-0.2925,-0.28,-0.382813,-0.40125,-0.016563,-0.36875,-0.405937,-0.400625,-0.40875,-0.398438,-0.42125,-0.409375,-0.29625,-0.27875,-0.291875,-0.314063,-0.299375,-0.283437,-0.279375,-0.36625,-0.43,-0.403437,-0.406875,-0.401563,-0.4025,-0.410312,0.074687,-0.460937,-0.387812
156,-0.319687,-0.317813,-0.299062,-0.224687,-0.214062,-0.310625,-0.339688,-0.149375,-0.102188,-0.37,-0.377813,-0.369687,-0.369687,-0.370625,-0.374375,-0.311875,-0.266875,-0.29125,-0.306563,-0.305313,-0.296562,-0.267812,-0.30125,-0.369062,-0.375625,-0.367188,-0.37,-0.378125,-0.369062,-0.265938,0.015313,-0.344687
157,-0.322812,-0.330938,-0.329062,-0.260937,-0.23625,-0.340625,-0.373438,-0.088125,-0.37,-0.420625,-0.42625,-0.42375,-0.42625,-0.45125,-0.399063,-0.339687,-0.344375,-0.368125,-0.383438,-0.383438,-0.36375,-0.339063,-0.34375,-0.425,-0.443438,-0.42875,-0.419688,-0.429375,-0.419375,-0.087813,-0.362188,-0.362813
158,-0.384687,-0.39,-0.38875,-0.324688,-0.325312,-0.421562,-0.49875,-0.03125,-0.476563,-0.462188,-0.45875,-0.447187,-0.465937,-0.473125,-0.362813,-0.334063,-0.3425,-0.361562,-0.368438,-0.347187,-0.34,-0.338437,-0.438125,-0.478125,-0.444687,-0.46125,-0.458125,-0.463125,-0.0375,-0.517187,-0.4275,-0.365
159,-0.36625,-0.364062,-0.36375,-0.299375,-0.267187,-0.359375,-0.425938,0.152812,-0.454375,-0.437813,-0.433437,-0.43,-0.420313,-0.43,-0.37,-0.324688,-0.342188,-0.36125,-0.36,-0.346875,-0.326562,-0.357187,-0.429688,-0.420938,-0.42625,-0.435937,-0.436875,-0.44,0.157187,-0.450938,-0.3675,-0.275937
160,-0.365625,-0.37625,-0.3675,-0.287813,-0.295625,-0.3925,-0.437813,-0.062187,-0.459063,-0.430313,-0.42625,-0.4275,-0.423438,-0.435625,-0.377187,-0.355,-0.375625,-0.397812,-0.408437,-0.38625,-0.371562,-0.35,-0.404688,-0.43625,-0.4225,-0.427188,-0.429688,-0.435313,-0.190625,-0.344375,-0.40875,-0.355312
161,-0.406563,-0.410625,-0.406875,-0.335938,-0.354688,-0.44125,-0.494062,-0.016875,-0.524063,-0.499375,-0.498125,-0.502813,-0.498125,-0.523125,-0.507187,-0.40625,-0.406562,-0.421562,-0.422188,-0.414063,-0.398125,-0.459688,-0.533437,-0.506875,-0.498125,-0.499062,-0.499688,-0.496563,-0.043438,-0.510312,-0.450625,-0.390938
162,-0.434062,-0.433437,-0.4175,-0.345937,-0.339063,-0.42375,-0.4375,-0.136875,-0.31625,-0.448438,-0.4425,-0.445,-0.44,-0.4575,-0.455,-0.354375,-0.32125,-0.324062,-0.342188,-0.33875,-0.321562,-0.322187,-0.380625,-0.46375,-0.450625,-0.444063,-0.44375,-0.439375,-0.455312,-0.034688,-0.416563,-0.433437
163,-0.349063,-0.355938,-0.350938,-0.280937,-0.265625,-0.36125,-0.4,-0.024687,-0.105625,-0.418125,-0.412187,-0.405625,-0.399062,-0.399062,-0.39,-0.31625,-0.31125,-0.32125,-0.349687,-0.340937,-0.317187,-0.31,-0.33,-0.399063,-0.399062,-0.39875,-0.409375,-0.414063,-0.411875,0.177812,-0.328438,-0.374063
164,-0.348125,-0.360938,-0.346875,-0.2675,-0.256875,-0.3475,-0.394375,0.090313,-0.36625,-0.41875,-0.420937,-0.417813,-0.422188,-0.437187,-0.419375,-0.361875,-0.367813,-0.391562,-0.400625,-0.395,-0.367813,-0.363125,-0.407813,-0.439063,-0.424062,-0.421562,-0.415625,-0.422188,-0.430313,0.170313,-0.415313,-0.3575
165,-0.40375,-0.412188,-0.407188,-0.335938,-0.340625,-0.431563,-0.466875,-0.031562,-0.4875,-0.48625,-0.48125,-0.48375,-0.489375,-0.514063,-0.474375,-0.395312,-0.383437,-0.400625,-0.4025,-0.395312,-0.383437,-0.404375,-0.500625,-0.508438,-0.484375,-0.485938,-0.481875,-0.479688,-0.2925,-0.240313,-0.444375,-0.412813
166,-0.40375,-0.411563,-0.395938,-0.332812,-0.30375,-0.39875,-0.452188,-0.00125,-0.449688,-0.433437,-0.4275,-0.425938,-0.437187,-0.433125,-0.334375,-0.313438,-0.33125,-0.35125,-0.36,-0.347188,-0.326562,-0.31125,-0.35625,-0.445937,-0.429688,-0.427188,-0.430313,-0.431562,-0.295312,-0.185625,-0.415312,-0.37875
167,-0.359688,-0.354062,-0.327812,-0.255,-0.275312,-0.36875,-0.416562,0.0525,-0.41875,-0.411563,-0.414063,-0.414063,-0.413125,-0.394688,-0.315,-0.3125,-0.323125,-0.347188,-0.354062,-0.33875,-0.314375,-0.306875,-0.353125,-0.410938,-0.411875,-0.417188,-0.410937,-0.41375,-0.03,-0.358125,-0.37625,-0.329063
168,-0.350625,-0.35,-0.325938,-0.2475,-0.255,-0.351563,-0.401875,0.065938,-0.400625,-0.395312,-0.399375,-0.392188,-0.390938,-0.403437,-0.336563,-0.310313,-0.320625,-0.343125,-0.344687,-0.3225,-0.313125,-0.325,-0.404687,-0.39,-0.391875,-0.399687,-0.397187,-0.3925,0.079375,-0.426562,-0.353438,-0.268125
169,-0.349688,-0.35125,-0.344375,-0.269688,-0.283437,-0.363438,-0.390625,0.090313,-0.429375,-0.413125,-0.417813,-0.423438,-0.4175,-0.457188,-0.409375,-0.319375,-0.304688,-0.316875,-0.330938,-0.309375,-0.303438,-0.339063,-0.430313,-0.448438,-0.41875,-0.420313,-0.419375,-0.410625,-0.212812,-0.136875,-0.370625,-0.351563
170,-0.33,-0.325625,-0.295938,-0.230625,-0.232812,-0.323125,-0.343437,0.070625,-0.303438,-0.372813,-0.364688,-0.375313,-0.363125,-0.37625,-0.379687,-0.284375,-0.263438,-0.269687,-0.290313,-0.275625,-0.264375,-0.26375,-0.3375,-0.386562,-0.365,-0.371562,-0.3675,-0.370313,-0.368125,0.16625,-0.395312,-0.332812
171,-0.304062,-0.31,-0.30125,-0.219375,-0.22125,-0.316875,-0.353438,-0.109063,-0.185,-0.39375,-0.393125,-0.387187,-0.39125,-0.38625,-0.384375,-0.311875,-0.28,-0.300625,-0.32,-0.323125,-0.301875,-0.283437,-0.302813,-0.377187,-0.389062,-0.389687,-0.386875,-0.393438,-0.394375,-0.329375,0.040625,-0.364375
172,-0.326875,-0.337187,-0.334063,-0.27375,-0.243437,-0.3475,-0.383125,-0.001875,-0.372813,-0.425313,-0.434063,-0.429375,-0.438125,-0.453125,-0.439375,-0.358438,-0.357188,-0.385312,-0.405625,-0.396875,-0.3675,-0.3525,-0.399375,-0.465,-0.439687,-0.431562,-0.431875,-0.42875,-0.429063,0.100313,-0.4525,-0.361875
173,-0.397812,-0.405312,-0.410625,-0.351875,-0.3225,-0.41,-0.449375,-0.043125,-0.484375,-0.462812,-0.465312,-0.463125,-0.47125,-0.495938,-0.406875,-0.341875,-0.34375,-0.350938,-0.353437,-0.3475,-0.336563,-0.369687,-0.480938,-0.480625,-0.466563,-0.462812,-0.460938,-0.464375,-0.04375,-0.481562,-0.425625,-0.353125
174,-0.355625,-0.352812,-0.341563,-0.278125,-0.247813,-0.342813,-0.389375,0.091563,-0.395938,-0.39625,-0.385,-0.378437,-0.381563,-0.380938,-0.324687,-0.270937,-0.285937,-0.303438,-0.312187,-0.298438,-0.273125,-0.285312,-0.365937,-0.381875,-0.37875,-0.384062,-0.389062,-0.393438,0.0325,-0.349062,-0.36,-0.292813
175,-0.313437,-0.317813,-0.309687,-0.220313,-0.237812,-0.329687,-0.362188,0.064375,-0.396875,-0.377813,-0.373437,-0.365625,-0.358125,-0.365938,-0.302813,-0.262812,-0.28875,-0.309062,-0.32875,-0.304375,-0.28,-0.264062,-0.325312,-0.36625,-0.358438,-0.3675,-0.374062,-0.37875,-0.228125,-0.115312,-0.34125,-0.314687
176,-0.32875,-0.329375,-0.31375,-0.242812,-0.279687,-0.365938,-0.450625,0.104688,-0.44625,-0.43125,-0.434687,-0.44,-0.437813,-0.4625,-0.42125,-0.352188,-0.3575,-0.380625,-0.389687,-0.371562,-0.356562,-0.3575,-0.445313,-0.453438,-0.43875,-0.438125,-0.435,-0.431875,-0.288438,-0.086875,-0.4,-0.357812
177,-0.3925,-0.384687,-0.376875,-0.301562,-0.328125,-0.414063,-0.44625,-0.000937,-0.425625,-0.4475,-0.433438,-0.431563,-0.427813,-0.450312,-0.4,-0.2925,-0.283437,-0.293125,-0.3075,-0.293125,-0.283437,-0.2925,-0.4,-0.450312,-0.427813,-0.431563,-0.433438,-0.4475,-0.425625,-0.000937,-0.44625,-0.414063
178,-0.304062,-0.30375,-0.289687,-0.21875,-0.2125,-0.295312,-0.325938,0.072813,-0.287813,-0.354688,-0.353125,-0.33875,-0.335625,-0.346563,-0.330625,-0.251563,-0.242812,-0.258438,-0.288125,-0.276563,-0.247812,-0.239375,-0.288125,-0.350625,-0.339063,-0.335938,-0.345313,-0.35875,-0.341563,0.166563,-0.380938,-0.310625
179,-0.293125,-0.2925,-0.275,-0.196875,-0.214375,-0.302813,-0.341875,0.0525,-0.325,-0.353437,-0.352188,-0.351875,-0.345937,-0.351563,-0.340625,-0.266562,-0.27125,-0.27875,-0.306875,-0.295625,-0.273125,-0.259687,-0.305937,-0.350313,-0.34875,-0.3475,-0.352812,-0.35125,-0.356562,0.123125,-0.397188,-0.31875
180,-0.314063,-0.322187,-0.32,-0.246875,-0.26125,-0.353437,-0.38375,0.001563,-0.413125,-0.410313,-0.408125,-0.414375,-0.40875,-0.435938,-0.388125,-0.315,-0.318438,-0.3425,-0.359375,-0.345,-0.323438,-0.311562,-0.374375,-0.436563,-0.410625,-0.415,-0.409063,-0.409375,-0.4225,0.021875,-0.39875,-0.358437
181,-0.351563,-0.364375,-0.356875,-0.284688,-0.28625,-0.37875,-0.40375,0.025625,-0.417812,-0.39375,-0.38125,-0.381875,-0.387812,-0.4025,-0.29,-0.253438,-0.261875,-0.277812,-0.280313,-0.266875,-0.254375,-0.264375,-0.36875,-0.400312,-0.379687,-0.380937,-0.39,-0.39875,0.03,-0.432813,-0.38125,-0.321875
182,-0.28125,-0.284375,-0.28125,-0.214687,-0.199375,-0.29875,-0.331562,0.102813,-0.362188,-0.346875,-0.346563,-0.340937,-0.347813,-0.335312,-0.27625,-0.250313,-0.263438,-0.285625,-0.2875,-0.275312,-0.253125,-0.254687,-0.32125,-0.347188,-0.340312,-0.34375,-0.345312,-0.351875,0.120937,-0.374687,-0.307187,-0.237188
183,-0.286875,-0.301562,-0.284375,-0.212812,-0.220937,-0.314687,-0.36125,0.050625,-0.369687,-0.361562,-0.364063,-0.364063,-0.362188,-0.375,-0.3425,-0.295625,-0.302188,-0.323125,-0.331562,-0.307813,-0.29625,-0.315,-0.37125,-0.368437,-0.362188,-0.3675,-0.359062,-0.362188,0.055,-0.38625,-0.323125,-0.2575
184,-0.338125,-0.349688,-0.328125,-0.260625,-0.27375,-0.369375,-0.4075,0.005,-0.402812,-0.418437,-0.426562,-0.42,-0.420938,-0.455938,-0.429688,-0.337812,-0.337187,-0.345625,-0.365,-0.347813,-0.339688,-0.3325,-0.419375,-0.458438,-0.420625,-0.422813,-0.424063,-0.419688,-0.444063,0.058125,-0.423438,-0.376563
185,-0.362812,-0.352188,-0.345312,-0.264063,-0.259687,-0.3425,-0.365625,-0.01125,-0.279687,-0.374375,-0.373125,-0.373437,-0.36875,-0.378125,-0.375937,-0.273438,-0.24125,-0.248437,-0.2725,-0.257813,-0.24125,-0.2475,-0.346563,-0.384062,-0.367188,-0.374063,-0.370625,-0.38,-0.37625,0.136875,-0.4175,-0.354688
186,-0.280937,-0.279063,-0.270313,-0.1875,-0.193125,-0.278437,-0.301875,-0.0025,-0.190313,-0.347187,-0.341875,-0.34125,-0.34125,-0.340625,-0.311563,-0.248125,-0.24625,-0.268125,-0.28375,-0.275937,-0.265,-0.245,-0.252813,-0.329688,-0.340312,-0.343437,-0.337187,-0.346875,-0.34125,0.093125,-0.283437,-0.292813
187,-0.285625,-0.288437,-0.2775,-0.192813,-0.2075,-0.279375,-0.3075,0.062812,-0.316563,-0.340625,-0.339063,-0.34625,-0.341875,-0.346875,-0.337188,-0.284063,-0.285312,-0.304688,-0.320937,-0.309375,-0.2875,-0.280625,-0.331875,-0.346875,-0.341563,-0.346563,-0.339063,-0.339687,-0.353125,0.108438,-0.321875,-0.28625
188,-0.312813,-0.327187,-0.329688,-0.25375,-0.24125,-0.340938,-0.383438,0.078437,-0.440937,-0.417188,-0.41375,-0.414688,-0.41875,-0.442813,-0.38375,-0.309063,-0.305,-0.316875,-0.322187,-0.30875,-0.304688,-0.341875,-0.436875,-0.4275,-0.415625,-0.414688,-0.41625,-0.413125,0.06,-0.41,-0.358125,-0.274375
189,-0.32125,-0.31875,-0.319375,-0.232188,-0.224687,-0.300937,-0.340937,0.100312,-0.347813,-0.334063,-0.335313,-0.326875,-0.320313,-0.345,-0.264375,-0.212187,-0.215625,-0.234375,-0.240313,-0.220938,-0.21375,-0.225625,-0.318125,-0.332188,-0.325312,-0.327188,-0.337187,-0.334063,0.036875,-0.299062,-0.313125,-0.262187
190,-0.241875,-0.241563,-0.234688,-0.164687,-0.145938,-0.216875,-0.2825,0.138125,-0.32,-0.307187,-0.301875,-0.307187,-0.308437,-0.307187,-0.257188,-0.220937,-0.229687,-0.253437,-0.26125,-0.234688,-0.225,-0.23125,-0.2975,-0.310938,-0.304375,-0.306563,-0.306562,-0.3025,0.142813,-0.320625,-0.245625,-0.161563
191,-0.260312,-0.273438,-0.264375,-0.1825,-0.185625,-0.281563,-0.327812,0.275625,-0.286875,-0.343437,-0.362188,-0.366563,-0.366562,-0.375313,-0.345937,-0.297188,-0.308438,-0.324687,-0.335312,-0.31375,-0.3,-0.3175,-0.366875,-0.370313,-0.367188,-0.36625,-0.353437,-0.34,0.261875,-0.28375,-0.291875,-0.229687
192,-0.3425,-0.3475,-0.335938,-0.269062,-0.2875,-0.371875,-0.410625,0.039687,-0.430625,-0.419062,-0.419063,-0.418438,-0.419375,-0.444062,-0.416562,-0.334375,-0.315625,-0.325625,-0.343438,-0.32375,-0.31375,-0.349063,-0.437813,-0.436562,-0.415,-0.418437,-0.424063,-0.414375,-0.26375,-0.14625,-0.381875,-0.362188
193,-0.340625,-0.342812,-0.30375,-0.234375,-0.251875,-0.32,-0.362188,-0.005,-0.195625,-0.36,-0.353125,-0.3575,-0.350625,-0.367188,-0.34625,-0.250938,-0.229375,-0.236875,-0.256875,-0.250313,-0.23375,-0.228125,-0.27375,-0.360938,-0.36,-0.35125,-0.357188,-0.355937,-0.357188,0.081875,-0.300937,-0.336875
194,-0.261562,-0.268125,-0.254375,-0.178438,-0.183437,-0.27875,-0.28875,0.10125,-0.267187,-0.325,-0.320625,-0.324375,-0.321563,-0.320938,-0.301562,-0.238438,-0.24375,-0.255625,-0.271875,-0.26125,-0.25125,-0.235938,-0.265312,-0.318125,-0.324063,-0.323125,-0.320625,-0.321875,-0.324375,0.190312,-0.345625,-0.28
195,-0.265625,-0.284063,-0.278437,-0.204375,-0.174062,-0.27625,-0.330625,0.209062,-0.25625,-0.358438,-0.365,-0.37,-0.366562,-0.387812,-0.33875,-0.280625,-0.287812,-0.315625,-0.325,-0.303125,-0.285312,-0.284375,-0.374062,-0.38,-0.363438,-0.371875,-0.361562,-0.355625,0.198438,-0.2525,-0.304062,-0.2325
196,-0.315938,-0.330938,-0.32875,-0.251875,-0.26125,-0.360938,-0.395,0.047187,-0.431562,-0.410937,-0.415,-0.400312,-0.410625,-0.434375,-0.327187,-0.2775,-0.290625,-0.309062,-0.309062,-0.290625,-0.2775,-0.327187,-0.434375,-0.410625,-0.400312,-0.415,-0.410937,-0.431562,0.047187,-0.395,-0.360938,-0.26125
197,-0.30875,-0.310313,-0.303438,-0.233437,-0.2075,-0.30375,-0.344375,0.139375,-0.385,-0.37625,-0.378437,-0.369375,-0.370313,-0.373125,-0.304688,-0.2675,-0.275312,-0.302813,-0.31,-0.284375,-0.267812,-0.280625,-0.356562,-0.37375,-0.369063,-0.375,-0.375,-0.37375,0.150938,-0.387812,-0.323438,-0.235
198,-0.315313,-0.32875,-0.308125,-0.236562,-0.254063,-0.340312,-0.432813,0.06875,-0.4075,-0.389062,-0.39,-0.394375,-0.377187,-0.379687,-0.320625,-0.291875,-0.306563,-0.33125,-0.355312,-0.323125,-0.303125,-0.29125,-0.342812,-0.3775,-0.3825,-0.392812,-0.390312,-0.39125,-0.278437,-0.100313,-0.38125,-0.326562
199,-0.35125,-0.358437,-0.35,-0.278125,-0.279375,-0.37125,-0.39875,0.122187,-0.35375,-0.422188,-0.425625,-0.424688,-0.425938,-0.442187,-0.412188,-0.335,-0.32625,-0.348125,-0.360313,-0.342188,-0.324687,-0.344375,-0.435625,-0.430625,-0.429062,-0.424375,-0.424062,-0.4225,-0.056875,-0.180937,-0.381562,-0.355625
200,-0.36875,-0.373438,-0.361875,-0.296875,-0.2975,-0.379375,-0.404687,0.01625,-0.344063,-0.404063,-0.395625,-0.384062,-0.384375,-0.40875,-0.392812,-0.287188,-0.269375,-0.278437,-0.297812,-0.28875,-0.273438,-0.2725,-0.354062,-0.4125,-0.389062,-0.383438,-0.393125,-0.399062,-0.40875,0.124688,-0.453125,-0.389375
201,-0.295625,-0.296562,-0.289688,-0.203438,-0.204688,-0.290312,-0.314063,0.01125,-0.236875,-0.349063,-0.347188,-0.343437,-0.344375,-0.347813,-0.315937,-0.246875,-0.2475,-0.266875,-0.272187,-0.269687,-0.2625,-0.244063,-0.255625,-0.33375,-0.347813,-0.345312,-0.341563,-0.35,-0.347813,0.0575,-0.279375,-0.306563
202,-0.285,-0.288125,-0.27625,-0.19125,-0.20125,-0.287187,-0.316875,0.005,-0.239688,-0.334063,-0.334688,-0.331562,-0.329688,-0.3325,-0.336875,-0.27375,-0.2775,-0.28875,-0.310313,-0.306563,-0.285938,-0.270625,-0.288125,-0.342812,-0.32875,-0.329062,-0.3325,-0.334688,-0.332187,0.036563,-0.2725,-0.31
203,-0.310938,-0.317813,-0.315938,-0.245313,-0.240625,-0.34625,-0.370938,0.019688,-0.397812,-0.3975,-0.40125,-0.39875,-0.397812,-0.429688,-0.38125,-0.307813,-0.307813,-0.321562,-0.334063,-0.32375,-0.309062,-0.305625,-0.365,-0.435313,-0.39875,-0.3975,-0.405,-0.397187,-0.409375,0.042813,-0.3875,-0.348438
204,-0.330312,-0.33625,-0.319063,-0.262812,-0.220625,-0.301562,-0.34125,0.09625,-0.36375,-0.338437,-0.34375,-0.33,-0.3375,-0.34625,-0.243125,-0.214063,-0.231562,-0.246563,-0.250937,-0.24125,-0.215625,-0.222813,-0.31375,-0.344063,-0.333125,-0.335625,-0.344063,-0.34,0.092812,-0.366562,-0.31875,-0.242813
205,-0.249375,-0.262187,-0.258125,-0.175938,-0.169375,-0.262187,-0.314375,0.145938,-0.340312,-0.338437,-0.329062,-0.325,-0.328438,-0.329688,-0.266562,-0.230312,-0.244063,-0.270938,-0.279375,-0.2525,-0.235625,-0.241563,-0.314687,-0.330625,-0.328125,-0.324062,-0.334375,-0.334687,0.15125,-0.343125,-0.28,-0.201875
206,-0.289687,-0.297188,-0.283438,-0.22,-0.20625,-0.310313,-0.363437,0.04375,-0.370625,-0.35625,-0.356562,-0.351563,-0.3575,-0.364688,-0.325312,-0.284687,-0.3,-0.326562,-0.339375,-0.3325,-0.298125,-0.287188,-0.317813,-0.36375,-0.356875,-0.354062,-0.354375,-0.355625,-0.374062,0.068125,-0.389687,-0.317187
207,-0.3425,-0.359063,-0.350937,-0.284375,-0.275312,-0.3825,-0.40875,-0.006875,-0.279063,-0.44375,-0.44625,-0.445625,-0.44125,-0.462812,-0.460625,-0.365313,-0.35125,-0.360625,-0.384062,-0.366875,-0.355625,-0.350625,-0.421875,-0.472813,-0.450312,-0.44125,-0.445625,-0.4475,-0.463125,0.215937,-0.465312,-0.388438
208,-0.39125,-0.385937,-0.372813,-0.31375,-0.280937,-0.365,-0.384687,-0.160937,0.019375,-0.401875,-0.4,-0.396875,-0.388125,-0.397812,-0.39,-0.298125,-0.284063,-0.298125,-0.3125,-0.3125,-0.298125,-0.284063,-0.298125,-0.39,-0.397812,-0.388125,-0.396875,-0.4,-0.401875,0.019375,-0.160937,-0.384687
209,-0.32125,-0.311563,-0.307813,-0.221875,-0.213125,-0.297812,-0.320937,-0.130938,-0.118125,-0.358438,-0.349063,-0.350938,-0.344375,-0.345937,-0.333125,-0.259687,-0.256562,-0.271875,-0.291562,-0.294375,-0.275937,-0.256875,-0.254375,-0.327812,-0.345,-0.344063,-0.350937,-0.348125,-0.357812,-0.270938,0.02125,-0.326562
210,-0.298125,-0.30375,-0.29875,-0.225,-0.210313,-0.309375,-0.349687,0.041875,-0.383125,-0.3725,-0.371563,-0.377187,-0.366563,-0.378125,-0.355938,-0.310937,-0.312813,-0.331875,-0.34,-0.331563,-0.316563,-0.308438,-0.346563,-0.381875,-0.364688,-0.378438,-0.371563,-0.372813,-0.381875,0.051563,-0.365,-0.3175
211,-0.343125,-0.365,-0.35625,-0.279375,-0.283437,-0.370937,-0.408437,0.000625,-0.441875,-0.435313,-0.440938,-0.450625,-0.439375,-0.46625,-0.46125,-0.355937,-0.349688,-0.360938,-0.37,-0.3575,-0.347188,-0.375938,-0.475937,-0.4575,-0.44,-0.450312,-0.44,-0.433125,-0.239375,-0.206563,-0.39375,-0.349063
212,-0.37125,-0.361563,-0.3475,-0.29,-0.254375,-0.3525,-0.37125,0.009688,-0.372812,-0.390938,-0.377187,-0.382187,-0.374062,-0.394687,-0.319375,-0.273438,-0.280937,-0.293438,-0.301563,-0.295625,-0.281563,-0.274063,-0.308438,-0.390625,-0.376562,-0.382187,-0.375625,-0.390312,-0.41375,0.0625,-0.386562,-0.36
213,-0.305938,-0.306875,-0.2925,-0.208438,-0.195313,-0.293125,-0.36125,0.195,-0.354687,-0.340312,-0.339375,-0.339375,-0.335312,-0.334063,-0.251875,-0.24125,-0.257813,-0.263125,-0.274375,-0.265,-0.253125,-0.236875,-0.273438,-0.338437,-0.33625,-0.337813,-0.34,-0.341875,-0.171562,-0.021875,-0.317813,-0.266875
214,-0.275,-0.27875,-0.272812,-0.217187,-0.182187,-0.266562,-0.322812,0.140312,-0.359375,-0.353437,-0.35625,-0.354688,-0.35375,-0.360625,-0.35375,-0.282812,-0.279375,-0.295625,-0.3,-0.29125,-0.275937,-0.29625,-0.366875,-0.354062,-0.3525,-0.359062,-0.355313,-0.34875,-0.128438,-0.1,-0.299688,-0.239063
215,-0.310313,-0.321875,-0.315938,-0.258125,-0.235,-0.322187,-0.35375,-0.066563,-0.205,-0.406875,-0.400312,-0.409375,-0.400937,-0.417812,-0.4275,-0.3075,-0.276875,-0.279687,-0.287813,-0.287813,-0.278125,-0.277812,-0.335938,-0.437813,-0.407187,-0.404687,-0.408125,-0.3975,-0.41625,0.08625,-0.341563,-0.347188
216,-0.290938,-0.28875,-0.276875,-0.218437,-0.189375,-0.27875,-0.312187,-0.132188,-0.09875,-0.33625,-0.335,-0.325312,-0.324062,-0.329062,-0.320938,-0.230312,-0.218125,-0.227187,-0.251563,-0.250625,-0.231562,-0.217813,-0.22375,-0.314687,-0.32875,-0.323125,-0.32625,-0.333438,-0.335312,-0.25375,0.030937,-0.324688
217,-0.257813,-0.252813,-0.245625,-0.165937,-0.155937,-0.239687,-0.272812,-0.075313,0.183437,-0.309687,-0.313125,-0.300625,-0.305,-0.308125,-0.2825,-0.220625,-0.231875,-0.251875,-0.28,-0.28,-0.251875,-0.231875,-0.220625,-0.2825,-0.308125,-0.305,-0.300625,-0.313125,-0.309687,0.183437,-0.075313,-0.272812
218,-0.283125,-0.295,-0.288125,-0.222813,-0.23625,-0.334375,-0.361875,0.00875,-0.402812,-0.392187,-0.395312,-0.393125,-0.399063,-0.422812,-0.3325,-0.297188,-0.314687,-0.332812,-0.3375,-0.332812,-0.314687,-0.297188,-0.3325,-0.422812,-0.399063,-0.393125,-0.395312,-0.392187,-0.402812,0.00875,-0.361875,-0.334375
219,-0.335938,-0.342188,-0.339687,-0.274063,-0.263125,-0.360313,-0.384375,0.00875,-0.405625,-0.392188,-0.397812,-0.398125,-0.400625,-0.421875,-0.319063,-0.279062,-0.292188,-0.305937,-0.305937,-0.292188,-0.279062,-0.319063,-0.421875,-0.400625,-0.398125,-0.397812,-0.392188,-0.405625,0.00875,-0.384375,-0.360313,-0.263125
220,-0.31875,-0.315313,-0.319063,-0.239375,-0.231562,-0.330312,-0.362188,0.059063,-0.377813,-0.397813,-0.38875,-0.391875,-0.3925,-0.398438,-0.361875,-0.300625,-0.296875,-0.322812,-0.339375,-0.322812,-0.296875,-0.300625,-0.361875,-0.398438,-0.3925,-0.391875,-0.38875,-0.397813,-0.377813,0.059063,-0.362188,-0.330312
221,-0.344375,-0.34125,-0.34375,-0.27125,-0.250625,-0.351563,-0.396563,-0.023125,-0.435625,-0.429688,-0.433125,-0.432187,-0.430937,-0.434687,-0.429688,-0.358125,-0.357188,-0.362812,-0.379687,-0.367813,-0.356562,-0.352188,-0.42375,-0.438125,-0.425625,-0.436875,-0.433125,-0.4275,-0.44375,-0.005,-0.413125,-0.364063
222,-0.385938,-0.390312,-0.3775,-0.302813,-0.310313,-0.409063,-0.449687,-0.068438,-0.374062,-0.460312,-0.457812,-0.450938,-0.459375,-0.483438,-0.4375,-0.331875,-0.330938,-0.3425,-0.359062,-0.352812,-0.3325,-0.325,-0.384375,-0.488438,-0.464687,-0.454687,-0.45625,-0.457812,-0.465,0.076875,-0.517812,-0.422188
223,-0.355938,-0.34375,-0.335312,-0.26,-0.259687,-0.345938,-0.369375,0.031875,-0.3575,-0.39,-0.388125,-0.381563,-0.377813,-0.389687,-0.367813,-0.257813,-0.24625,-0.262187,-0.278437,-0.274375,-0.253437,-0.245313,-0.305313,-0.39375,-0.383125,-0.37625,-0.38375,-0.393438,-0.38125,0.091563,-0.419062,-0.351875
224,-0.28625,-0.285937,-0.28125,-0.208438,-0.189063,-0.279687,-0.307187,-0.039375,-0.23375,-0.334375,-0.335938,-0.331563,-0.3325,-0.350313,-0.319375,-0.244687,-0.24875,-0.264062,-0.273438,-0.27375,-0.260625,-0.238438,-0.261875,-0.33375,-0.34875,-0.332188,-0.329688,-0.339063,-0.330312,0.040312,-0.310938,-0.3
225,-0.279063,-0.281875,-0.266563,-0.195938,-0.191563,-0.294375,-0.336562,0.0325,-0.377187,-0.37125,-0.370625,-0.365938,-0.369375,-0.391875,-0.3625,-0.307813,-0.315937,-0.338437,-0.363125,-0.342187,-0.317813,-0.30625,-0.352188,-0.394688,-0.370625,-0.365938,-0.370625,-0.37125,-0.383438,0.049687,-0.353125,-0.306562
226,-0.36125,-0.3675,-0.359375,-0.294062,-0.293438,-0.395625,-0.4125,-0.00875,-0.455,-0.43875,-0.4425,-0.444375,-0.45,-0.489063,-0.403125,-0.330625,-0.335625,-0.345937,-0.34875,-0.345937,-0.335625,-0.330625,-0.403125,-0.489063,-0.45,-0.444375,-0.4425,-0.43875,-0.455,-0.00875,-0.4125,-0.395625
227,-0.349375,-0.34375,-0.32375,-0.240625,-0.248438,-0.335312,-0.39625,0.328438,-0.361875,-0.394375,-0.3875,-0.387187,-0.391562,-0.398125,-0.315625,-0.285,-0.30125,-0.31875,-0.3225,-0.305313,-0.290938,-0.292812,-0.374063,-0.39875,-0.389062,-0.384062,-0.395312,-0.385625,0.314375,-0.374375,-0.34375,-0.279687
228,-0.326875,-0.33375,-0.328437,-0.248125,-0.239375,-0.333125,-0.38625,0.077813,-0.411875,-0.40375,-0.388125,-0.39125,-0.389687,-0.401563,-0.339063,-0.295625,-0.303125,-0.313125,-0.319375,-0.309687,-0.293437,-0.31125,-0.390938,-0.395312,-0.389375,-0.3875,-0.4,-0.394375,0.074375,-0.415,-0.355312,-0.26375
229,-0.333438,-0.33,-0.318438,-0.24125,-0.230625,-0.328125,-0.366875,-0.105313,-0.267812,-0.398438,-0.399063,-0.399687,-0.375625,-0.29625,-0.329688,-0.366562,-0.349375,-0.35875,-0.359375,-0.361875,-0.3525,-0.35375,-0.360938,-0.280625,-0.359375,-0.3975,-0.400312,-0.399687,-0.407187,0.054375,-0.393438,-0.345313
230,-0.298125,-0.281875,-0.2975,-0.3875,-0.37625,-0.344375,-0.34625,-0.3575,-0.355625,-0.36,-0.363125,-0.3975,0.160625,0.181875,-0.37375,-0.3575,-0.361875,-0.366875,-0.35875,-0.345625,-0.345,-0.35,-0.34375,-0.345625,-0.39,-0.419375,-0.401875,-0.369375,-0.344375,-0.336875,-0.336875,-0.355625
231,-0.334688,-0.331875,-0.324062,-0.276563,-0.232188,-0.270625,-0.325625,-0.399063,0.120625,-0.36625,-0.36625,-0.364062,-0.363125,-0.37375,-0.403125,-0.28875,-0.244687,-0.255937,-0.275937,-0.293438,-0.3,-0.285625,-0.260625,-0.246875,-0.257188,-0.371875,-0.390625,-0.366563,-0.363438,-0.362813,-0.37125,-0.078125
232,-0.301875,-0.309375,-0.301563,-0.227812,-0.216563,-0.305937,-0.344062,-0.1275,-0.066875,-0.393125,-0.394375,-0.388125,-0.392187,-0.399062,-0.361562,-0.298125,-0.298125,-0.3275,-0.356563,-0.359062,-0.328125,-0.301875,-0.29875,-0.346563,-0.402188,-0.392812,-0.38625,-0.395,-0.394062,-0.232187,0.045937,-0.36
233,-0.354062,-0.356875,-0.34375,-0.260312,-0.263125,-0.35625,-0.4125,-0.046875,-0.367188,-0.4475,-0.440937,-0.450625,-0.445313,-0.482813,-0.406563,-0.363125,-0.384062,-0.403437,-0.413437,-0.416562,-0.387188,-0.373437,-0.370625,-0.459375,-0.465937,-0.44375,-0.44875,-0.441562,-0.440313,0.063125,-0.479688,-0.38125
234,-0.415625,-0.418438,-0.41,-0.335625,-0.344375,-0.43625,-0.480938,-0.001562,-0.511562,-0.501562,-0.49625,-0.485938,-0.488437,-0.515625,-0.428438,-0.348125,-0.345625,-0.357188,-0.363125,-0.346875,-0.348437,-0.375938,-0.512187,-0.492188,-0.484375,-0.495937,-0.497187,-0.496563,-0.003125,-0.509375,-0.452188,-0.375625
235,-0.373438,-0.364688,-0.34375,-0.264688,-0.267812,-0.354375,-0.37375,0.028438,-0.350625,-0.398125,-0.388438,-0.386875,-0.387812,-0.387812,-0.361875,-0.280625,-0.281875,-0.30125,-0.31625,-0.309375,-0.2925,-0.2775,-0.30875,-0.388125,-0.39,-0.385,-0.389687,-0.390625,-0.396562,0.110313,-0.4275,-0.362813
236,-0.318125,-0.311563,-0.3,-0.216562,-0.224063,-0.314375,-0.354375,0.011875,-0.278437,-0.35125,-0.340625,-0.3425,-0.32625,-0.3425,-0.320313,-0.247187,-0.255,-0.273125,-0.304375,-0.290937,-0.258125,-0.245625,-0.285937,-0.346875,-0.33,-0.335625,-0.342187,-0.348125,-0.345625,0.143438,-0.426875,-0.323438
237,-0.302813,-0.309375,-0.285938,-0.20875,-0.216563,-0.310313,-0.35,0.019687,-0.320313,-0.370938,-0.371562,-0.365938,-0.36875,-0.40125,-0.386875,-0.28875,-0.27625,-0.285937,-0.300938,-0.290937,-0.279063,-0.27625,-0.346875,-0.415312,-0.374375,-0.367188,-0.367188,-0.371875,-0.375,0.115312,-0.406563,-0.320313
238,-0.309063,-0.30875,-0.302188,-0.218125,-0.216563,-0.302188,-0.314063,-0.044375,-0.173438,-0.330312,-0.324062,-0.320625,-0.3225,-0.340313,-0.362188,-0.269062,-0.230312,-0.242188,-0.255937,-0.260625,-0.241563,-0.23125,-0.25875,-0.35625,-0.344063,-0.325938,-0.317813,-0.323125,-0.3325,-0.298125,0.087813,-0.324375
239,-0.271563,-0.284688,-0.277812,-0.2175,-0.182812,-0.261875,-0.314687,-0.249375,0.110313,-0.358438,-0.360625,-0.3575,-0.35625,-0.36625,-0.350313,-0.261875,-0.264687,-0.276562,-0.290312,-0.300313,-0.2875,-0.272812,-0.26125,-0.275312,-0.366875,-0.360312,-0.35625,-0.36125,-0.359375,-0.352812,0.255312,-0.387812
240,-0.300313,-0.300313,-0.295,-0.229375,-0.199687,-0.302813,-0.329687,-0.000312,-0.32375,-0.36625,-0.356875,-0.359375,-0.360313,-0.372813,-0.3225,-0.294375,-0.310313,-0.334375,-0.345,-0.340937,-0.320313,-0.301875,-0.295625,-0.364063,-0.369687,-0.355625,-0.36,-0.361875,-0.3575,0.075625,-0.3875,-0.318125
241,-0.339687,-0.346563,-0.342188,-0.259375,-0.275312,-0.370313,-0.414063,0.029062,-0.424375,-0.412812,-0.412812,-0.408438,-0.425,-0.450312,-0.340625,-0.304688,-0.314687,-0.324062,-0.323438,-0.32,-0.303125,-0.320625,-0.415625,-0.445,-0.407188,-0.412188,-0.411875,-0.41125,0.011562,-0.420625,-0.379687,-0.313437
242,-0.329062,-0.315938,-0.307813,-0.2325,-0.222187,-0.315313,-0.353125,0.075625,-0.375,-0.356875,-0.356875,-0.354062,-0.360625,-0.365,-0.266875,-0.251563,-0.262812,-0.285,-0.2975,-0.279063,-0.2575,-0.252187,-0.285625,-0.376875,-0.355625,-0.351563,-0.359063,-0.360938,-0.194063,-0.116563,-0.334062,-0.290312
243,-0.297813,-0.293125,-0.280312,-0.193437,-0.204062,-0.300313,-0.333125,0.095313,-0.355312,-0.354375,-0.346563,-0.3425,-0.339375,-0.348437,-0.295312,-0.238438,-0.248437,-0.26125,-0.285,-0.255313,-0.245937,-0.240625,-0.320938,-0.346563,-0.335938,-0.3475,-0.345937,-0.35375,-0.124375,-0.142813,-0.315938,-0.285312
244,-0.285,-0.294375,-0.280625,-0.20375,-0.193125,-0.300625,-0.319062,-0.0775,-0.253438,-0.369063,-0.37625,-0.384062,-0.388125,-0.395625,-0.4,-0.328125,-0.30375,-0.32125,-0.340312,-0.339687,-0.317187,-0.300625,-0.34625,-0.40625,-0.392187,-0.385937,-0.384062,-0.374062,-0.365313,0.013437,-0.3375,-0.319062
245,-0.353125,-0.352812,-0.343125,-0.268438,-0.269375,-0.364062,-0.397187,-0.136875,-0.260625,-0.429062,-0.421562,-0.428438,-0.428125,-0.458438,-0.467188,-0.362187,-0.315313,-0.321562,-0.33625,-0.334688,-0.320313,-0.315313,-0.389687,-0.478125,-0.45,-0.424688,-0.4275,-0.423125,-0.427188,0.007813,-0.404688,-0.39
246,-0.332188,-0.33625,-0.323125,-0.251875,-0.23375,-0.325,-0.355625,-0.090625,-0.227187,-0.389688,-0.382813,-0.379687,-0.374375,-0.383125,-0.375937,-0.288437,-0.274687,-0.29125,-0.313437,-0.31125,-0.29,-0.272188,-0.296562,-0.382813,-0.382187,-0.373125,-0.381875,-0.382187,-0.389687,-0.06625,-0.247812,-0.35375
247,-0.32,-0.322187,-0.314063,-0.2375,-0.227812,-0.3225,-0.342188,-0.156563,-0.12875,-0.379375,-0.37375,-0.372187,-0.374687,-0.3775,-0.360625,-0.290625,-0.281563,-0.300312,-0.323437,-0.325625,-0.305312,-0.285,-0.28375,-0.340625,-0.382813,-0.37,-0.373437,-0.375937,-0.375313,-0.386562,0.11,-0.363438
248,-0.327812,-0.32,-0.314375,-0.275312,-0.215312,-0.319063,-0.365,-0.03875,-0.384375,-0.399375,-0.402812,-0.399375,-0.390938,-0.41375,-0.364688,-0.304375,-0.31875,-0.329062,-0.3475,-0.336563,-0.319062,-0.312187,-0.327187,-0.4125,-0.395625,-0.396875,-0.403125,-0.400625,-0.397812,0.0225,-0.429375,-0.344375
249,-0.344063,-0.344688,-0.349375,-0.271562,-0.249687,-0.353125,-0.395625,0.030625,-0.415312,-0.40375,-0.40625,-0.395313,-0.409375,-0.431562,-0.324688,-0.26625,-0.27625,-0.2825,-0.28625,-0.280312,-0.26875,-0.288437,-0.405625,-0.426562,-0.394062,-0.400937,-0.404688,-0.401875,0.0325,-0.420937,-0.369687,-0.28375
250,-0.288125,-0.288125,-0.277812,-0.20875,-0.171563,-0.256875,-0.302188,0.195937,-0.300937,-0.319375,-0.320625,-0.310937,-0.310313,-0.327187,-0.27625,-0.211563,-0.222187,-0.24375,-0.265,-0.24375,-0.222187,-0.211563,-0.27625,-0.327187,-0.310313,-0.310937,-0.320625,-0.319375,-0.300937,0.195937,-0.302188,-0.256875
251,-0.270312,-0.28,-0.27375,-0.2025,-0.187813,-0.289063,-0.319687,0.026875,-0.3425,-0.355625,-0.360313,-0.3525,-0.349375,-0.35625,-0.338125,-0.26375,-0.273438,-0.285312,-0.301562,-0.299062,-0.275,-0.268125,-0.29125,-0.358437,-0.353125,-0.34875,-0.356875,-0.355313,-0.364062,0.094375,-0.392812,-0.30875
252,-0.326562,-0.33,-0.324062,-0.250938,-0.259375,-0.360625,-0.379063,-0.206875,-0.225,-0.429063,-0.430625,-0.440937,-0.4375,-0.46125,-0.480625,-0.3725,-0.360313,-0.366563,-0.386562,-0.389375,-0.368437,-0.360625,-0.365312,-0.4725,-0.464687,-0.44,-0.439687,-0.430313,-0.432187,-0.365938,-0.062187,-0.38875
253,-0.397188,-0.399063,-0.389063,-0.320313,-0.319375,-0.405937,-0.444688,-0.329063,-0.13,-0.437187,-0.42625,-0.419375,-0.407187,-0.43875,-0.427188,-0.3175,-0.302188,-0.310625,-0.322812,-0.324062,-0.317813,-0.304063,-0.303125,-0.363125,-0.454063,-0.419375,-0.40875,-0.427188,-0.428438,-0.4475,0.043125,-0.507813
254,-0.330625,-0.333438,-0.3225,-0.24,-0.228437,-0.325,-0.372187,-0.042812,-0.14625,-0.386562,-0.37625,-0.365625,-0.358125,-0.366562,-0.33125,-0.258438,-0.268125,-0.2825,-0.291562,-0.295,-0.279687,-0.265625,-0.2625,-0.342187,-0.364375,-0.358438,-0.3675,-0.375625,-0.388125,0.024375,-0.224375,-0.356875
255,-0.293438,-0.301875,-0.28375,-0.216563,-0.183437,-0.273438,-0.32375,0.085938,-0.362188,-0.348125,-0.34375,-0.337187,-0.339063,-0.347812,-0.3325,-0.277812,-0.280937,-0.312187,-0.317187,-0.30875,-0.2775,-0.277812,-0.351875,-0.343125,-0.334687,-0.343437,-0.344375,-0.34875,-0.129063,-0.15125,-0.305313,-0.241875
256,-0.329375,-0.339688,-0.343125,-0.270625,-0.2625,-0.368125,-0.40875,-0.023437,-0.42375,-0.439687,-0.435625,-0.434375,-0.441563,-0.470313,-0.459375,-0.36125,-0.345937,-0.3675,-0.380938,-0.37,-0.35125,-0.352813,-0.445625,-0.4775,-0.440313,-0.434375,-0.439375,-0.43625,-0.447187,0.007813,-0.423125,-0.378125
257,-0.3775,-0.388125,-0.384375,-0.313125,-0.284063,-0.381875,-0.401563,0.008437,-0.431562,-0.414063,-0.41375,-0.404063,-0.403437,-0.439375,-0.368437,-0.297813,-0.2725,-0.190938,-0.23125,-0.194063,-0.29125,-0.300938,-0.403125,-0.430625,-0.400313,-0.405625,-0.414063,-0.415937,-0.19375,-0.233438,-0.389375,-0.3575
258,-0.315313,-0.295313,-0.216562,-0.225313,-0.348125,-0.370625,-0.10875,-0.222188,-0.407187,-0.404063,-0.399063,-0.396563,-0.415625,-0.361875,-0.31125,-0.320938,-0.32125,-0.31,-0.353437,-0.41375,-0.397188,-0.401563,-0.400625,-0.40875,-0.365625,0.03625,-0.375625,-0.355937,-0.241875,-0.202188,-0.295625,-0.306563
259,-0.336875,-0.3375,-0.327812,-0.3175,-0.242812,-0.267812,-0.344687,-0.41125,0.06,-0.403438,-0.399375,-0.405312,-0.415938,-0.404063,-0.430313,-0.412188,-0.349063,-0.329375,-0.353125,-0.374063,-0.394375,-0.374063,-0.353125,-0.329375,-0.349063,-0.412188,-0.430313,-0.404063,-0.415938,-0.405312,-0.399375,-0.403438
260,-0.387812,-0.393438,-0.401875,-0.341563,-0.328438,-0.41875,-0.445,-0.172812,-0.387188,-0.488438,-0.4925,-0.49625,-0.480625,-0.525312,-0.517187,-0.410937,-0.388438,-0.395938,-0.413125,-0.409687,-0.3975,-0.386562,-0.419062,-0.529688,-0.517187,-0.48,-0.4975,-0.491875,-0.4875,-0.233438,-0.3225,-0.442187
261,-0.409375,-0.400937,-0.390937,-0.310313,-0.29,-0.372813,-0.396875,-0.130313,-0.112187,-0.421562,-0.420625,-0.414063,-0.405313,-0.424375,-0.42125,-0.312813,-0.285625,-0.297188,-0.319688,-0.319688,-0.297188,-0.285625,-0.312813,-0.42125,-0.424375,-0.405313,-0.414063,-0.420625,-0.421562,-0.112187,-0.130313,-0.396875
262,-0.320313,-0.323438,-0.314062,-0.241563,-0.217187,-0.2975,-0.3425,-0.073125,-0.230313,-0.377813,-0.370938,-0.3675,-0.368438,-0.375937,-0.322812,-0.26125,-0.264062,-0.275,-0.296562,-0.287812,-0.274687,-0.25875,-0.26875,-0.346563,-0.37375,-0.367188,-0.367813,-0.375,-0.375,0.054375,-0.353125,-0.334063
263,-0.29,-0.296562,-0.295,-0.209062,-0.212187,-0.312813,-0.339375,0.044062,-0.381563,-0.371563,-0.376875,-0.387188,-0.392187,-0.408125,-0.36,-0.315937,-0.339375,-0.365313,-0.366875,-0.3575,-0.330938,-0.317187,-0.391875,-0.4025,-0.385625,-0.388438,-0.373125,-0.365938,-0.065938,-0.278125,-0.320625,-0.278437
264,-0.365312,-0.374687,-0.3675,-0.308125,-0.28875,-0.39,-0.450312,0.002188,-0.448438,-0.444063,-0.445313,-0.445,-0.448438,-0.494375,-0.410937,-0.33625,-0.340625,-0.352812,-0.354062,-0.335312,-0.340937,-0.449687,-0.4825,-0.443438,-0.444063,-0.449687,-0.440625,-0.434375,-0.039063,-0.413438,-0.365625,-0.280625
265,-0.360937,-0.358438,-0.333438,-0.239063,-0.256563,-0.350625,-0.375937,0.080312,-0.391562,-0.395312,-0.383437,-0.386875,-0.379687,-0.400313,-0.367812,-0.279375,-0.28375,-0.290312,-0.316562,-0.291562,-0.285625,-0.277187,-0.35375,-0.401563,-0.3825,-0.384375,-0.384687,-0.394062,-0.404063,0.1075,-0.395312,-0.3525
266,-0.325625,-0.324687,-0.318125,-0.245312,-0.224375,-0.324375,-0.363438,0.090938,-0.242812,-0.39,-0.391562,-0.386562,-0.377813,-0.391563,-0.375,-0.3075,-0.294062,-0.3125,-0.332812,-0.320313,-0.302813,-0.295312,-0.3475,-0.394063,-0.38,-0.387187,-0.385938,-0.39625,-0.381875,0.27375,-0.417812,-0.340625
267,-0.34375,-0.345937,-0.34125,-0.259062,-0.26875,-0.365,-0.4,-0.10625,-0.3825,-0.441562,-0.4475,-0.448437,-0.440938,-0.466563,-0.455,-0.374687,-0.364375,-0.382187,-0.411875,-0.4125,-0.3725,-0.362813,-0.386562,-0.472187,-0.455,-0.444687,-0.449062,-0.443438,-0.441563,-0.103437,-0.378437,-0.395
268,-0.417188,-0.420625,-0.417187,-0.34125,-0.344687,-0.435,-0.475313,-0.031875,-0.490313,-0.473437,-0.484688,-0.476875,-0.467813,-0.489688,-0.478438,-0.36,-0.333125,-0.349063,-0.355938,-0.352188,-0.333125,-0.35125,-0.468437,-0.491562,-0.467813,-0.475937,-0.484375,-0.472813,-0.503125,-0.006562,-0.49125,-0.44375
269,-0.37,-0.368438,-0.366875,-0.301875,-0.264375,-0.348437,-0.383125,-0.064687,-0.299375,-0.420937,-0.410313,-0.400312,-0.389375,-0.395,-0.358125,-0.2975,-0.29,-0.311563,-0.333438,-0.32875,-0.30625,-0.288437,-0.303125,-0.379687,-0.390312,-0.395937,-0.399375,-0.41375,-0.41875,0.004062,-0.363125,-0.37875
270,-0.335313,-0.325938,-0.3325,-0.249375,-0.239375,-0.339063,-0.373438,0.03875,-0.400625,-0.390938,-0.388125,-0.380938,-0.378437,-0.381875,-0.352188,-0.29125,-0.30125,-0.333438,-0.35125,-0.334688,-0.305313,-0.290938,-0.338437,-0.384375,-0.379687,-0.377813,-0.389062,-0.390938,-0.408125,0.06,-0.390625,-0.345625
271,-0.347813,-0.366563,-0.362188,-0.289688,-0.285,-0.380313,-0.432187,0.1075,-0.447187,-0.46,-0.461563,-0.474688,-0.468125,-0.506562,-0.425625,-0.371875,-0.390938,-0.409375,-0.420937,-0.406875,-0.380313,-0.378438,-0.454375,-0.495937,-0.469688,-0.473125,-0.461875,-0.457188,-0.179688,-0.166875,-0.412188,-0.355
272,-0.411875,-0.419375,-0.42625,-0.344375,-0.357813,-0.445938,-0.486563,-0.021875,-0.488438,-0.468437,-0.466563,-0.47375,-0.475,-0.494687,-0.394062,-0.348125,-0.367188,-0.3875,-0.389062,-0.370937,-0.35375,-0.369062,-0.479375,-0.485313,-0.467812,-0.4725,-0.467187,-0.4725,-0.005625,-0.520625,-0.452812,-0.378438
273,-0.392187,-0.394687,-0.386562,-0.3075,-0.307187,-0.412812,-0.440313,0.014062,-0.456563,-0.463437,-0.450937,-0.453125,-0.455312,-0.453125,-0.434375,-0.362812,-0.366875,-0.390625,-0.4,-0.390625,-0.366875,-0.362812,-0.434375,-0.453125,-0.455312,-0.453125,-0.450937,-0.463437,-0.456563,0.014062,-0.440313,-0.412812
274,-0.416875,-0.4175,-0.411875,-0.328125,-0.32875,-0.420625,-0.44625,-0.2075,-0.284687,-0.47,-0.460312,-0.460312,-0.46,-0.455625,-0.46,-0.408125,-0.373125,-0.391562,-0.411875,-0.415625,-0.393125,-0.37375,-0.401875,-0.454375,-0.46,-0.4575,-0.46,-0.460312,-0.470313,-0.4225,-0.06125,-0.4575
275,-0.44125,-0.446562,-0.45,-0.391875,-0.36,-0.45375,-0.490625,-0.313437,-0.328125,-0.530313,-0.534375,-0.538437,-0.533125,-0.54375,-0.564687,-0.477187,-0.44625,-0.443125,-0.465313,-0.465313,-0.443125,-0.44625,-0.477187,-0.564687,-0.54375,-0.533125,-0.538437,-0.534375,-0.530313,-0.328125,-0.313437,-0.490625
276,-0.48375,-0.479062,-0.484375,-0.415625,-0.397188,-0.481875,-0.505938,-0.231562,-0.388125,-0.516875,-0.513125,-0.499063,-0.4925,-0.520625,-0.48875,-0.385312,-0.37375,-0.377187,-0.385312,-0.38125,-0.378125,-0.372813,-0.399375,-0.51375,-0.513125,-0.48875,-0.506875,-0.5125,-0.517812,-0.112188,-0.506875,-0.501875
277,-0.390938,-0.388125,-0.374687,-0.314063,-0.276875,-0.352812,-0.3975,-0.014375,-0.389687,-0.421562,-0.411875,-0.406563,-0.40375,-0.407187,-0.371562,-0.311875,-0.323125,-0.331562,-0.350625,-0.34,-0.325312,-0.3125,-0.340312,-0.40125,-0.410312,-0.401875,-0.40875,-0.421562,-0.415312,0.06,-0.459688,-0.382187
278,-0.352187,-0.350937,-0.345,-0.286875,-0.24875,-0.350625,-0.389687,-0.01875,-0.430937,-0.415937,-0.4125,-0.420938,-0.415313,-0.426875,-0.386875,-0.349375,-0.36875,-0.390938,-0.407812,-0.383438,-0.366563,-0.348125,-0.405,-0.42375,-0.415313,-0.42125,-0.41125,-0.41625,-0.230625,-0.222188,-0.375313,-0.319375
279,-0.407812,-0.41375,-0.413125,-0.341563,-0.341563,-0.44,-0.484062,0.065625,-0.472813,-0.506563,-0.511562,-0.5175,-0.51875,-0.559687,-0.503438,-0.432187,-0.435,-0.44125,-0.45625,-0.4375,-0.4325,-0.43625,-0.534375,-0.550313,-0.518125,-0.51,-0.517187,-0.503125,-0.166875,-0.247188,-0.463125,-0.410937
280,-0.46125,-0.458125,-0.443125,-0.367188,-0.345313,-0.439375,-0.465625,0.013125,-0.404063,-0.495,-0.487188,-0.480312,-0.480625,-0.4925,-0.439062,-0.37625,-0.372187,-0.391875,-0.403125,-0.391875,-0.372187,-0.37625,-0.439062,-0.4925,-0.480625,-0.480312,-0.487188,-0.495,-0.404063,0.013125,-0.465625,-0.439375
281,-0.413437,-0.412813,-0.401562,-0.329063,-0.312813,-0.407187,-0.439375,-0.0275,-0.3625,-0.444062,-0.438438,-0.429062,-0.422813,-0.424375,-0.399063,-0.332812,-0.318125,-0.335312,-0.353438,-0.339688,-0.327812,-0.320625,-0.3675,-0.428438,-0.41875,-0.430938,-0.431562,-0.444687,-0.448438,0.108438,-0.495,-0.42125
282,-0.361562,-0.35875,-0.345625,-0.272812,-0.269062,-0.360938,-0.409375,-0.164688,-0.312813,-0.451875,-0.444062,-0.45125,-0.4525,-0.4575,-0.475,-0.398125,-0.371875,-0.387187,-0.401875,-0.401875,-0.387187,-0.371875,-0.398125,-0.475,-0.4575,-0.4525,-0.45125,-0.444062,-0.451875,-0.312813,-0.164688,-0.409375
283,-0.424688,-0.424062,-0.425,-0.353438,-0.343125,-0.435313,-0.45,-0.230937,-0.123125,-0.481875,-0.485313,-0.484375,-0.475,-0.485625,-0.520312,-0.417188,-0.355,-0.349687,-0.36,-0.361562,-0.350313,-0.351875,-0.401875,-0.517812,-0.489062,-0.47625,-0.482188,-0.485313,-0.483125,-0.291875,-0.05625,-0.4625
284,-0.367813,-0.354688,-0.346875,-0.2925,-0.246562,-0.333125,-0.35875,-0.17625,-0.17125,-0.405,-0.395625,-0.400625,-0.397188,-0.404375,-0.393125,-0.3075,-0.287188,-0.305313,-0.325625,-0.325625,-0.305313,-0.287188,-0.3075,-0.393125,-0.404375,-0.397188,-0.400625,-0.395625,-0.405,-0.17125,-0.17625,-0.35875
285,-0.329687,-0.33375,-0.324375,-0.265938,-0.228125,-0.320313,-0.37375,0.057188,-0.337812,-0.389375,-0.3875,-0.383125,-0.39,-0.397812,-0.345313,-0.296562,-0.308437,-0.326875,-0.345937,-0.334062,-0.314687,-0.300625,-0.310313,-0.39625,-0.387187,-0.387812,-0.385937,-0.3875,-0.392187,0.156563,-0.43125,-0.348437
286,-0.3425,-0.344375,-0.342812,-0.28875,-0.264062,-0.369375,-0.412188,-0.027187,-0.450312,-0.43625,-0.43875,-0.44125,-0.445,-0.470625,-0.432187,-0.358125,-0.375313,-0.380938,-0.4025,-0.376875,-0.363125,-0.375313,-0.46625,-0.460312,-0.437187,-0.445,-0.435937,-0.431562,-0.125625,-0.35625,-0.389687,-0.331875
287,-0.403437,-0.406562,-0.407813,-0.362188,-0.326875,-0.416875,-0.469375,-0.025,-0.500313,-0.478437,-0.47125,-0.464375,-0.46,-0.490938,-0.425313,-0.339687,-0.347813,-0.351875,-0.36,-0.349063,-0.345,-0.345313,-0.459063,-0.484688,-0.455312,-0.471563,-0.46875,-0.481562,-0.314687,-0.22625,-0.441875,-0.39
288,-0.365,-0.36625,-0.35125,-0.276875,-0.26125,-0.358437,-0.381563,-0.173125,-0.1775,-0.429375,-0.415937,-0.415312,-0.411563,-0.415,-0.405937,-0.310312,-0.30375,-0.3175,-0.334375,-0.334375,-0.3175,-0.30375,-0.310312,-0.405937,-0.415,-0.411563,-0.415312,-0.415937,-0.429375,-0.1775,-0.173125,-0.381563
289,-0.339687,-0.335312,-0.331875,-0.24875,-0.237188,-0.3275,-0.374687,-0.205312,-0.155313,-0.379063,-0.37625,-0.370625,-0.362188,-0.370937,-0.349063,-0.285312,-0.266875,-0.282813,-0.297813,-0.316562,-0.285938,-0.275313,-0.265312,-0.323438,-0.365313,-0.362812,-0.36875,-0.371875,-0.379375,-0.37625,0.094375,-0.462812
290,-0.321562,-0.316875,-0.30875,-0.244687,-0.232812,-0.319687,-0.3525,-0.165312,-0.194375,-0.4,-0.40625,-0.405,-0.405625,-0.41875,-0.436875,-0.340312,-0.315313,-0.323125,-0.34875,-0.346563,-0.328125,-0.315625,-0.330938,-0.428438,-0.424688,-0.404375,-0.404687,-0.4075,-0.40125,-0.33375,-0.024063,-0.360313
291,-0.355625,-0.360938,-0.360625,-0.29,-0.283437,-0.37125,-0.409688,-0.157187,-0.194688,-0.41,-0.401875,-0.395,-0.389375,-0.415625,-0.389688,-0.278437,-0.276875,-0.296562,-0.311875,-0.311875,-0.296562,-0.276875,-0.278437,-0.389688,-0.415625,-0.389375,-0.395,-0.401875,-0.41,-0.194688,-0.157187,-0.409688
292,-0.315,-0.315625,-0.304375,-0.22625,-0.215937,-0.303125,-0.33875,-0.10125,-0.221563,-0.392187,-0.386875,-0.382813,-0.370938,-0.389062,-0.365938,-0.27875,-0.284688,-0.300938,-0.320625,-0.320625,-0.297188,-0.283437,-0.285,-0.374375,-0.385312,-0.374687,-0.381563,-0.3875,-0.391875,-0.06375,-0.254063,-0.339063
293,-0.328438,-0.331563,-0.326563,-0.243437,-0.264688,-0.365,-0.444688,-0.062812,-0.391563,-0.43,-0.437187,-0.428438,-0.4325,-0.456563,-0.410313,-0.356562,-0.37,-0.385938,-0.400937,-0.392812,-0.38125,-0.3575,-0.37375,-0.4475,-0.4425,-0.430938,-0.431562,-0.432813,-0.428438,0.020312,-0.516562,-0.38
294,-0.392812,-0.401875,-0.41125,-0.351563,-0.3225,-0.428125,-0.464687,-0.021563,-0.5125,-0.490313,-0.48125,-0.469688,-0.469063,-0.494375,-0.424062,-0.33875,-0.34625,-0.353125,-0.3575,-0.347188,-0.34125,-0.370625,-0.492813,-0.480312,-0.46125,-0.480938,-0.484062,-0.490625,-0.0425,-0.487812,-0.439375,-0.357188
295,-0.35875,-0.3625,-0.3475,-0.274687,-0.250625,-0.339063,-0.391562,0.04125,-0.401875,-0.400937,-0.394062,-0.381875,-0.38,-0.38625,-0.379687,-0.294688,-0.28375,-0.297813,-0.30875,-0.301875,-0.284063,-0.289688,-0.371875,-0.386875,-0.379687,-0.383438,-0.390625,-0.400313,-0.427812,0.080625,-0.408125,-0.351875
296,-0.321875,-0.322187,-0.313125,-0.229062,-0.224063,-0.313125,-0.331875,-0.159375,-0.144375,-0.355625,-0.349063,-0.340625,-0.339687,-0.33875,-0.349375,-0.278125,-0.25375,-0.27125,-0.294062,-0.294062,-0.27125,-0.25375,-0.278125,-0.349375,-0.33875,-0.339687,-0.340625,-0.349063,-0.355625,-0.144375,-0.159375,-0.331875
297,-0.309062,-0.32,-0.318125,-0.262812,-0.234375,-0.32125,-0.366875,-0.234375,-0.163438,-0.411875,-0.416875,-0.406875,-0.410313,-0.414688,-0.44875,-0.382813,-0.319062,-0.323438,-0.3375,-0.338437,-0.326875,-0.317187,-0.345312,-0.4425,-0.429062,-0.409063,-0.407188,-0.414063,-0.41625,-0.429375,0.050312,-0.399063
298,-0.350313,-0.353437,-0.355937,-0.290937,-0.265625,-0.334688,-0.386562,-0.133125,-0.191563,-0.4025,-0.391562,-0.389062,-0.377813,-0.401563,-0.392187,-0.274687,-0.259687,-0.263125,-0.283125,-0.283125,-0.263125,-0.259687,-0.274687,-0.392187,-0.401563,-0.377813,-0.389062,-0.391562,-0.4025,-0.191563,-0.133125,-0.386562
299,-0.292188,-0.285937,-0.288125,-0.229375,-0.17625,-0.24875,-0.310938,-0.042813,0.044375,-0.358438,-0.361563,-0.36375,-0.361875,-0.370625,-0.32625,-0.269687,-0.271563,-0.295938,-0.3175,-0.31125,-0.28875,-0.271875,-0.26875,-0.349688,-0.372187,-0.35875,-0.364062,-0.36125,-0.354688,0.334063,-0.325312,-0.302813
300,-0.316875,-0.322187,-0.316875,-0.242188,-0.233437,-0.32,-0.373125,0.0175,-0.388125,-0.412187,-0.40875,-0.41625,-0.410937,-0.422188,-0.38125,-0.3325,-0.348125,-0.364688,-0.383125,-0.364688,-0.348125,-0.3325,-0.38125,-0.422188,-0.410937,-0.41625,-0.40875,-0.412187,-0.388125,0.0175,-0.373125,-0.32
301,-0.391563,-0.404375,-0.384375,-0.315313,-0.335,-0.421875,-0.458125,-0.018438,-0.475,-0.475625,-0.474375,-0.481875,-0.474375,-0.51625,-0.429063,-0.356875,-0.360312,-0.365,-0.382813,-0.367813,-0.361562,-0.353438,-0.414688,-0.516875,-0.475,-0.482188,-0.475,-0.477188,-0.4925,0.014062,-0.47375,-0.429375
302,-0.376562,-0.362812,-0.355313,-0.268438,-0.277187,-0.367813,-0.38875,0.070625,-0.39375,-0.409687,-0.398125,-0.402812,-0.39625,-0.41125,-0.369687,-0.284375,-0.29375,-0.312187,-0.327187,-0.315937,-0.293437,-0.284063,-0.35625,-0.410313,-0.39875,-0.401875,-0.397812,-0.408437,-0.425,0.115625,-0.406563,-0.373125
303,-0.331875,-0.3375,-0.337188,-0.261875,-0.239375,-0.343437,-0.371875,0.010312,-0.37375,-0.400625,-0.399375,-0.391562,-0.392188,-0.399062,-0.389063,-0.32625,-0.3275,-0.350937,-0.359688,-0.34875,-0.331875,-0.324687,-0.380625,-0.400312,-0.394063,-0.38875,-0.4,-0.400625,-0.418125,0.06625,-0.388438,-0.350937
304,-0.379687,-0.3825,-0.369687,-0.302188,-0.302813,-0.403125,-0.419688,-0.136562,-0.31125,-0.454375,-0.451875,-0.44875,-0.443125,-0.455,-0.487188,-0.390625,-0.346875,-0.339375,-0.35625,-0.35,-0.340937,-0.34625,-0.4275,-0.48125,-0.447188,-0.445,-0.4525,-0.452187,-0.448438,-0.035313,-0.413125,-0.41125
305,-0.370625,-0.368125,-0.360625,-0.285,-0.268125,-0.359375,-0.382813,-0.1675,-0.205,-0.395,-0.393125,-0.390938,-0.386562,-0.389375,-0.397187,-0.300625,-0.265937,-0.270312,-0.3,-0.305,-0.273125,-0.264062,-0.291562,-0.38875,-0.393125,-0.386563,-0.39,-0.391562,-0.395625,-0.349063,-0.010625,-0.400625
306,-0.314687,-0.316875,-0.310937,-0.235,-0.219062,-0.314687,-0.355312,-0.084375,-0.076875,-0.385312,-0.380938,-0.372813,-0.371875,-0.375625,-0.34375,-0.278125,-0.276875,-0.289375,-0.306563,-0.306563,-0.289375,-0.276875,-0.278125,-0.34375,-0.375625,-0.371875,-0.372813,-0.380938,-0.385312,-0.076875,-0.084375,-0.355312
307,-0.306563,-0.315,-0.305937,-0.245312,-0.205312,-0.29625,-0.345,0.002188,-0.386875,-0.385625,-0.385312,-0.387187,-0.382813,-0.407187,-0.365938,-0.29375,-0.299063,-0.316563,-0.328125,-0.316563,-0.299063,-0.29375,-0.365938,-0.407187,-0.382813,-0.387187,-0.385312,-0.385625,-0.386875,0.002188,-0.345,-0.29625
308,-0.33,-0.336563,-0.329687,-0.27125,-0.245625,-0.3375,-0.369063,0.064688,-0.389375,-0.368125,-0.36375,-0.358125,-0.362188,-0.388438,-0.288125,-0.235938,-0.243437,-0.257187,-0.257813,-0.254687,-0.240313,-0.23625,-0.325938,-0.385,-0.355313,-0.360938,-0.365625,-0.367813,-0.2475,-0.092187,-0.347813,-0.316563
309,-0.258438,-0.259688,-0.2475,-0.192813,-0.1525,-0.256875,-0.302813,0.161563,-0.313438,-0.313437,-0.299688,-0.314375,-0.301562,-0.311562,-0.26375,-0.191875,-0.2025,-0.217813,-0.227187,-0.214063,-0.196562,-0.200312,-0.287188,-0.308438,-0.304688,-0.310625,-0.302188,-0.315313,-0.049063,-0.118125,-0.277188,-0.226563
310,-0.232187,-0.232188,-0.225313,-0.1475,-0.130937,-0.214375,-0.253438,0.025625,-0.176875,-0.284063,-0.285625,-0.284375,-0.280937,-0.28375,-0.28,-0.215625,-0.203125,-0.231563,-0.2525,-0.24625,-0.223438,-0.200312,-0.230312,-0.288438,-0.280937,-0.283125,-0.28125,-0.290625,-0.281563,0.10625,-0.254063,-0.244062
311,-0.263438,-0.271563,-0.257187,-0.186875,-0.2125,-0.302188,-0.322812,-0.080937,-0.202187,-0.373125,-0.37125,-0.370625,-0.38125,-0.403437,-0.40375,-0.299688,-0.271875,-0.293125,-0.3,-0.30125,-0.296562,-0.2725,-0.28875,-0.3975,-0.408437,-0.38125,-0.37,-0.370937,-0.373125,-0.331562,0.049375,-0.330625
312,-0.31125,-0.31625,-0.3125,-0.237188,-0.226875,-0.314687,-0.333125,0.02375,-0.253438,-0.340313,-0.34625,-0.344375,-0.33125,-0.353125,-0.350937,-0.247187,-0.232187,-0.240938,-0.259062,-0.25,-0.2325,-0.234375,-0.301562,-0.360625,-0.337187,-0.34125,-0.340937,-0.345,-0.344688,0.165,-0.391875,-0.32
313,-0.2625,-0.269062,-0.2475,-0.173125,-0.1675,-0.265312,-0.295938,-0.124687,-0.060625,-0.324687,-0.319375,-0.32125,-0.309375,-0.32,-0.311875,-0.241563,-0.226563,-0.243125,-0.273438,-0.273125,-0.246875,-0.22875,-0.233438,-0.305625,-0.321875,-0.308437,-0.3225,-0.3175,-0.325,-0.22125,0.041563,-0.304688
314,-0.277187,-0.280313,-0.270312,-0.187187,-0.188125,-0.287812,-0.344063,0.082812,-0.280625,-0.348437,-0.342813,-0.339063,-0.340625,-0.363125,-0.32375,-0.268438,-0.2825,-0.2975,-0.312813,-0.305,-0.29125,-0.269375,-0.290312,-0.362813,-0.344375,-0.340625,-0.343437,-0.3475,-0.344688,0.185625,-0.394687,-0.302188
315,-0.3075,-0.322812,-0.317813,-0.242813,-0.243125,-0.33125,-0.375313,0.053438,-0.397187,-0.382813,-0.375313,-0.375938,-0.375,-0.415313,-0.342813,-0.260312,-0.263438,-0.279063,-0.284375,-0.270312,-0.258438,-0.28375,-0.404063,-0.393125,-0.365313,-0.385312,-0.375937,-0.380313,-0.0175,-0.335938,-0.349688,-0.28375
316,-0.282813,-0.278437,-0.266875,-0.206562,-0.174375,-0.253438,-0.282812,0.23125,-0.23375,-0.30375,-0.295938,-0.283125,-0.29125,-0.311875,-0.245625,-0.177813,-0.179375,-0.1975,-0.217187,-0.1925,-0.175,-0.185625,-0.272812,-0.308438,-0.284687,-0.29,-0.296875,-0.3025,0.092812,-0.100938,-0.269375,-0.233437
317,-0.215313,-0.21625,-0.214063,-0.140625,-0.1275,-0.228437,-0.2725,0.13125,-0.2525,-0.275625,-0.272188,-0.264375,-0.261875,-0.267813,-0.210625,-0.165312,-0.1775,-0.195625,-0.211562,-0.20375,-0.185313,-0.168125,-0.179375,-0.260625,-0.261875,-0.264687,-0.26875,-0.273438,-0.277187,0.210312,-0.337813,-0.239688
318,-0.219063,-0.223437,-0.204375,-0.12625,-0.134375,-0.230625,-0.266875,0.114063,-0.215,-0.29875,-0.306875,-0.3175,-0.315625,-0.321562,-0.338125,-0.265625,-0.238125,-0.250937,-0.27,-0.261562,-0.245625,-0.235938,-0.313437,-0.3325,-0.315625,-0.318437,-0.314375,-0.303125,-0.300625,0.244375,-0.332187,-0.247813
319,-0.283437,-0.300313,-0.28875,-0.22,-0.220938,-0.326875,-0.345,-0.239375,-0.07375,-0.375,-0.382187,-0.379375,-0.382813,-0.405625,-0.4225,-0.305,-0.269688,-0.271875,-0.285312,-0.298438,-0.278437,-0.27375,-0.270625,-0.3325,-0.433125,-0.3925,-0.385625,-0.379063,-0.378437,-0.378125,0.097187,-0.401563
320,-0.300312,-0.295,-0.28,-0.21125,-0.195625,-0.295,-0.301875,-0.084375,-0.14375,-0.341563,-0.33,-0.330625,-0.331563,-0.33875,-0.305938,-0.229062,-0.2175,-0.236563,-0.25625,-0.25625,-0.236563,-0.2175,-0.229062,-0.305938,-0.33875,-0.331563,-0.330625,-0.33,-0.341563,-0.14375,-0.084375,-0.301875
321,-0.258125,-0.257813,-0.247187,-0.165312,-0.155625,-0.249062,-0.29,0.125,-0.30625,-0.31375,-0.305625,-0.29625,-0.289063,-0.307813,-0.26125,-0.210625,-0.215937,-0.238438,-0.24875,-0.241563,-0.2175,-0.208438,-0.253437,-0.3075,-0.28875,-0.297813,-0.302188,-0.312187,-0.32,0.150312,-0.306562,-0.260938
322,-0.255938,-0.256875,-0.246563,-0.172812,-0.186875,-0.286563,-0.34125,0.06,-0.344063,-0.340937,-0.338125,-0.337812,-0.33875,-0.362813,-0.286563,-0.2525,-0.259375,-0.282187,-0.296562,-0.2825,-0.261875,-0.255,-0.271875,-0.36375,-0.339687,-0.3375,-0.338437,-0.341875,-0.354375,0.096875,-0.374375,-0.287188
323,-0.289063,-0.296563,-0.284375,-0.199687,-0.207813,-0.308125,-0.344688,0.1075,-0.359688,-0.340312,-0.351875,-0.344687,-0.346563,-0.378437,-0.281563,-0.205938,-0.196562,-0.211563,-0.210313,-0.2025,-0.200937,-0.235,-0.364375,-0.355625,-0.3425,-0.350937,-0.343125,-0.344375,0.090312,-0.35375,-0.315,-0.246563
324,-0.215313,-0.2075,-0.203437,-0.13375,-0.10375,-0.191875,-0.230312,0.259062,0.005313,-0.236563,-0.236562,-0.238438,-0.22625,-0.246563,-0.233125,-0.141562,-0.137812,-0.151563,-0.176563,-0.163125,-0.1425,-0.132813,-0.198125,-0.250625,-0.228125,-0.236875,-0.238125,-0.237188,-0.245625,0.555313,-0.28,-0.2125
325,-0.189375,-0.1925,-0.189687,-0.10875,-0.112813,-0.203125,-0.24375,0.06625,-0.188437,-0.266562,-0.264687,-0.26625,-0.263125,-0.27375,-0.272188,-0.205313,-0.178438,-0.190937,-0.225,-0.215937,-0.186563,-0.176563,-0.225938,-0.275937,-0.270312,-0.264062,-0.265938,-0.267187,-0.264062,0.096875,-0.217187,-0.233125
326,-0.228125,-0.245313,-0.234375,-0.177188,-0.160938,-0.252187,-0.305938,-0.078438,-0.049062,-0.369375,-0.374062,-0.38875,-0.38625,-0.404375,-0.427188,-0.339375,-0.318125,-0.32875,-0.354062,-0.354062,-0.32875,-0.318125,-0.339375,-0.427188,-0.404375,-0.38625,-0.38875,-0.374062,-0.369375,-0.049062,-0.078438,-0.305938
327,-0.36125,-0.370625,-0.356562,-0.294062,-0.310313,-0.393438,-0.404063,-0.198125,-0.231875,-0.443438,-0.439687,-0.444062,-0.435625,-0.4575,-0.46875,-0.362812,-0.305,-0.31125,-0.320938,-0.32375,-0.310625,-0.30625,-0.347812,-0.462187,-0.461563,-0.438438,-0.440313,-0.440937,-0.444687,-0.376562,-0.048125,-0.4125
328,-0.339063,-0.334687,-0.325938,-0.278125,-0.228125,-0.295313,-0.355625,-0.212187,-0.0875,-0.392188,-0.389062,-0.384375,-0.3775,-0.38125,-0.363125,-0.28125,-0.27375,-0.290625,-0.312813,-0.313438,-0.298438,-0.27875,-0.27125,-0.327812,-0.3875,-0.375313,-0.380625,-0.387187,-0.390938,-0.401563,0.115,-0.385
329,-0.313125,-0.319687,-0.30625,-0.238438,-0.210938,-0.295937,-0.332187,0.042813,-0.3675,-0.353438,-0.34125,-0.34125,-0.339688,-0.353125,-0.274063,-0.23875,-0.250625,-0.275937,-0.29625,-0.275937,-0.250625,-0.23875,-0.274063,-0.353125,-0.339688,-0.34125,-0.34125,-0.353438,-0.3675,0.042813,-0.332187,-0.295937
330,-0.29125,-0.294062,-0.292812,-0.21875,-0.23625,-0.324375,-0.360312,0.04,-0.389062,-0.375,-0.378437,-0.34875,-0.362813,-0.393438,-0.290313,-0.26625,-0.272812,-0.284063,-0.29875,-0.278125,-0.266875,-0.270938,-0.362813,-0.379063,-0.34625,-0.37125,-0.373437,-0.377813,0.038438,-0.391563,-0.327812,-0.27125
331,-0.296875,-0.288437,-0.285625,-0.215625,-0.236875,-0.311563,-0.354375,0.115,-0.353437,-0.335312,-0.324062,-0.324062,-0.324063,-0.36625,-0.28625,-0.219063,-0.217187,-0.236563,-0.240625,-0.22375,-0.22,-0.23125,-0.350625,-0.34375,-0.321875,-0.324375,-0.3275,-0.338125,0.01125,-0.272187,-0.321562,-0.280625
332,-0.24375,-0.237813,-0.214062,-0.145,-0.15875,-0.245625,-0.30875,0.18875,-0.163438,-0.306563,-0.305937,-0.302188,-0.305625,-0.302812,-0.27875,-0.204375,-0.1975,-0.219062,-0.236875,-0.228125,-0.205625,-0.196875,-0.232187,-0.302813,-0.304062,-0.304062,-0.304063,-0.30375,-0.3025,0.3375,-0.340312,-0.260312
333,-0.249687,-0.246563,-0.232812,-0.156563,-0.170937,-0.265938,-0.279688,-0.069063,-0.146563,-0.31,-0.304062,-0.300625,-0.306562,-0.315938,-0.320938,-0.265938,-0.238438,-0.261875,-0.2825,-0.289375,-0.262187,-0.239062,-0.261562,-0.31625,-0.317187,-0.308125,-0.300313,-0.301563,-0.3125,-0.270312,0.06125,-0.290625
334,-0.295312,-0.295937,-0.300313,-0.228437,-0.222813,-0.314062,-0.332187,-0.056562,-0.284063,-0.377813,-0.38875,-0.391875,-0.3825,-0.399062,-0.42,-0.310312,-0.2875,-0.298438,-0.314375,-0.315313,-0.290625,-0.2875,-0.3375,-0.42875,-0.385,-0.3875,-0.3925,-0.382187,-0.38125,-0.010312,-0.319062,-0.328438
335,-0.3275,-0.32125,-0.315625,-0.24375,-0.221562,-0.309375,-0.355,-0.038438,-0.307187,-0.36625,-0.3625,-0.360625,-0.34625,-0.381875,-0.33125,-0.254375,-0.2475,-0.2625,-0.285,-0.280937,-0.256875,-0.2475,-0.262188,-0.35625,-0.375,-0.346875,-0.36125,-0.363125,-0.369375,-0.017812,-0.3375,-0.332187
336,-0.287188,-0.285937,-0.279688,-0.195,-0.183437,-0.276875,-0.325938,0.135313,-0.29875,-0.339375,-0.330938,-0.337812,-0.330312,-0.33375,-0.292188,-0.230937,-0.234375,-0.254375,-0.270938,-0.266562,-0.238438,-0.228125,-0.262812,-0.325938,-0.332187,-0.33875,-0.32875,-0.339375,-0.335625,0.207188,-0.377813,-0.288438
337,-0.267812,-0.276875,-0.264687,-0.196875,-0.162813,-0.248437,-0.30375,0.005312,-0.323125,-0.344687,-0.34875,-0.354688,-0.342188,-0.37125,-0.32,-0.267187,-0.282813,-0.30625,-0.316875,-0.315313,-0.288437,-0.270938,-0.29125,-0.366875,-0.349375,-0.350938,-0.349688,-0.347812,-0.34375,0.0675,-0.364687,-0.277188
338,-0.317813,-0.323438,-0.3225,-0.256875,-0.256563,-0.34125,-0.383125,0.035938,-0.418125,-0.395938,-0.405,-0.409063,-0.412188,-0.449063,-0.32625,-0.296875,-0.308438,-0.323125,-0.329375,-0.315625,-0.300313,-0.3,-0.395312,-0.439375,-0.40625,-0.404688,-0.405312,-0.394687,-0.025312,-0.359062,-0.352812,-0.30625
339,-0.3275,-0.31375,-0.309062,-0.228125,-0.222187,-0.320938,-0.351875,0.072187,-0.383438,-0.3775,-0.372813,-0.368437,-0.380313,-0.391562,-0.32375,-0.254375,-0.264062,-0.276875,-0.287187,-0.270938,-0.258438,-0.266562,-0.363125,-0.389687,-0.375,-0.369375,-0.373125,-0.3775,-0.026563,-0.28625,-0.333438,-0.283125
340,-0.292187,-0.297812,-0.276563,-0.194375,-0.196875,-0.284688,-0.315937,0.09125,-0.1525,-0.354062,-0.349063,-0.34875,-0.33875,-0.351875,-0.335625,-0.256875,-0.24375,-0.266875,-0.289688,-0.280313,-0.254063,-0.245,-0.29,-0.352812,-0.347187,-0.34125,-0.348125,-0.3575,-0.339688,0.315,-0.375625,-0.297188
341,-0.298438,-0.304688,-0.289063,-0.21125,-0.230938,-0.328438,-0.335625,-0.080937,-0.275937,-0.362812,-0.364375,-0.355625,-0.355625,-0.357188,-0.309062,-0.177812,-0.261875,-0.34,-0.376562,-0.371562,-0.324375,-0.24,-0.1825,-0.34375,-0.351875,-0.35875,-0.355313,-0.369062,-0.360312,-0.01375,-0.342813,-0.32875
342,-0.361875,-0.34625,-0.2325,-0.159375,-0.208125,-0.246875,-0.290625,-0.338125,-0.3575,-0.37875,-0.37875,-0.393125,-0.070625,0.38125,-0.44625,-0.409375,-0.416875,-0.4125,-0.40875,-0.414375,-0.399375,-0.39125,-0.396875,-0.396875,-0.39625,-0.4125,-0.41875,-0.39625,-0.3775,-0.3825,-0.37875,-0.3825
343,-0.399375,-0.397812,-0.402187,-0.395,-0.310625,-0.3175,-0.399687,-0.456563,0.0225,-0.431562,-0.430937,-0.42125,-0.411875,-0.426562,-0.461875,-0.354375,-0.275937,-0.276563,-0.291563,-0.310625,-0.304062,-0.312187,-0.291562,-0.28,-0.274062,-0.335,-0.459688,-0.431563,-0.4125,-0.418125,-0.432813,-0.426875
344,-0.308437,-0.307187,-0.312187,-0.24125,-0.218125,-0.308125,-0.363125,0.088437,-0.358437,-0.360625,-0.355,-0.346875,-0.334688,-0.33375,-0.257813,-0.234062,-0.244063,-0.265938,-0.28875,-0.270938,-0.247187,-0.231562,-0.251562,-0.329375,-0.333125,-0.347187,-0.353437,-0.359063,-0.375313,0.125625,-0.38875,-0.316563
345,-0.279687,-0.285,-0.276875,-0.195938,-0.203125,-0.300938,-0.345312,0.08,-0.378125,-0.356562,-0.365,-0.354062,-0.354062,-0.369062,-0.333125,-0.275312,-0.2825,-0.309062,-0.31375,-0.285625,-0.279687,-0.2975,-0.3725,-0.359688,-0.353437,-0.35875,-0.35875,-0.360937,0.079062,-0.380625,-0.306563,-0.241563
346,-0.324062,-0.329687,-0.322812,-0.260625,-0.25375,-0.352813,-0.385,0.02,-0.40875,-0.416562,-0.415937,-0.410625,-0.411563,-0.441563,-0.375313,-0.297188,-0.295938,-0.312813,-0.319063,-0.310313,-0.294375,-0.300937,-0.409687,-0.433438,-0.41,-0.410937,-0.41875,-0.407187,-0.214687,-0.187187,-0.363438,-0.332812
347,-0.325,-0.321875,-0.294062,-0.224375,-0.2525,-0.344375,-0.411563,0.06875,-0.396875,-0.405312,-0.400625,-0.4,-0.392812,-0.393125,-0.36,-0.293437,-0.303125,-0.324687,-0.34125,-0.329687,-0.304062,-0.292812,-0.350625,-0.391875,-0.390625,-0.400312,-0.40125,-0.404375,-0.404688,0.09875,-0.438438,-0.349375
348,-0.344375,-0.350313,-0.330938,-0.250313,-0.251875,-0.344375,-0.386875,0.083125,-0.227187,-0.415312,-0.40875,-0.393125,-0.391562,-0.3925,-0.383438,-0.3225,-0.320937,-0.340937,-0.36375,-0.345937,-0.32125,-0.319375,-0.377187,-0.39375,-0.39,-0.394687,-0.406875,-0.413437,-0.365625,0.233437,-0.405313,-0.350625
349,-0.374687,-0.382813,-0.378125,-0.304375,-0.314687,-0.403437,-0.444688,-0.110312,-0.4025,-0.47875,-0.479688,-0.479375,-0.4725,-0.49375,-0.503437,-0.408437,-0.375625,-0.39375,-0.41875,-0.406875,-0.386875,-0.381875,-0.455,-0.513125,-0.475312,-0.478438,-0.479062,-0.479375,-0.474063,0.000625,-0.503125,-0.427188
350,-0.42,-0.422188,-0.417813,-0.3325,-0.319063,-0.405313,-0.434375,0.001875,-0.417812,-0.442187,-0.44,-0.425313,-0.420312,-0.424062,-0.427188,-0.325625,-0.303125,-0.307813,-0.320313,-0.31125,-0.304063,-0.31625,-0.417812,-0.429062,-0.416562,-0.42625,-0.439063,-0.438438,-0.460938,0.055938,-0.450312,-0.411563
351,-0.338125,-0.348125,-0.33,-0.244687,-0.238438,-0.338125,-0.359062,0.03375,-0.298125,-0.393438,-0.383125,-0.376562,-0.370625,-0.364062,-0.332188,-0.26875,-0.260937,-0.281563,-0.298438,-0.29,-0.267812,-0.26125,-0.300937,-0.364375,-0.36625,-0.374687,-0.379687,-0.39,-0.390312,0.164375,-0.415,-0.35
352,-0.296875,-0.295937,-0.297188,-0.21875,-0.206875,-0.320313,-0.346563,0.04375,-0.38875,-0.377813,-0.382187,-0.381562,-0.380625,-0.394688,-0.336875,-0.294375,-0.306563,-0.322188,-0.338437,-0.312813,-0.301562,-0.295938,-0.37625,-0.382813,-0.380937,-0.383438,-0.379375,-0.380938,-0.025,-0.31625,-0.329688,-0.274063
353,-0.329687,-0.34625,-0.347813,-0.264375,-0.268438,-0.380938,-0.457188,0.0325,-0.439375,-0.416875,-0.415313,-0.417188,-0.429688,-0.423437,-0.329375,-0.297188,-0.31,-0.325312,-0.328125,-0.314687,-0.30375,-0.307187,-0.38625,-0.444687,-0.414375,-0.416562,-0.418437,-0.420313,0.01125,-0.462813,-0.388438,-0.310313
354,-0.330312,-0.329062,-0.310313,-0.226563,-0.242188,-0.34125,-0.37625,0.104375,-0.39625,-0.4,-0.396875,-0.39375,-0.393125,-0.3975,-0.354688,-0.294688,-0.301562,-0.314688,-0.328125,-0.307187,-0.295312,-0.310625,-0.390625,-0.395938,-0.392812,-0.3975,-0.394687,-0.394062,0.065938,-0.364688,-0.351875,-0.287813
355,-0.341875,-0.35,-0.3225,-0.242187,-0.23625,-0.3325,-0.365625,-0.03875,-0.281875,-0.3875,-0.389062,-0.38125,-0.379062,-0.3675,-0.359688,-0.293125,-0.2775,-0.295937,-0.31,-0.307187,-0.289063,-0.28,-0.3025,-0.3725,-0.367188,-0.38,-0.383125,-0.389687,-0.38375,0.004062,-0.329063,-0.353438
356,-0.323125,-0.325,-0.312187,-0.2275,-0.250313,-0.343125,-0.374687,-0.07875,-0.274063,-0.39875,-0.394062,-0.398125,-0.386875,-0.413125,-0.408438,-0.309687,-0.285313,-0.299375,-0.314063,-0.309687,-0.29625,-0.28375,-0.33375,-0.42,-0.402812,-0.390938,-0.395312,-0.396562,-0.398438,0.00375,-0.360313,-0.361875
357,-0.321562,-0.320625,-0.302188,-0.228125,-0.23875,-0.324375,-0.363438,-0.005,-0.239375,-0.335625,-0.329063,-0.327812,-0.3275,-0.343125,-0.30625,-0.226875,-0.221875,-0.23,-0.244687,-0.237813,-0.227812,-0.215625,-0.25625,-0.344063,-0.330625,-0.3275,-0.327813,-0.3325,-0.338437,0.167187,-0.444375,-0.324687
358,-0.24875,-0.249375,-0.242188,-0.158438,-0.155937,-0.245625,-0.270938,0.020625,-0.175625,-0.313125,-0.320313,-0.313438,-0.307813,-0.314687,-0.280313,-0.214063,-0.214687,-0.236563,-0.26,-0.2525,-0.233125,-0.21,-0.219688,-0.301562,-0.312813,-0.308125,-0.318125,-0.315,-0.315625,0.12375,-0.266875,-0.26875
359,-0.256875,-0.264375,-0.250625,-0.176875,-0.17125,-0.264375,-0.324375,0.181562,-0.2925,-0.354688,-0.358125,-0.350625,-0.367188,-0.372187,-0.356562,-0.282813,-0.294688,-0.308125,-0.332812,-0.302188,-0.288125,-0.29375,-0.37375,-0.370938,-0.359375,-0.355625,-0.355313,-0.348438,0.01125,-0.137812,-0.2975,-0.23
360,-0.334063,-0.340937,-0.333438,-0.270938,-0.255313,-0.367188,-0.40875,-0.009688,-0.423438,-0.429062,-0.4375,-0.434375,-0.4375,-0.471875,-0.454375,-0.346563,-0.333438,-0.346563,-0.348125,-0.346563,-0.333438,-0.346563,-0.454375,-0.471875,-0.4375,-0.434375,-0.4375,-0.429062,-0.423438,-0.009688,-0.40875,-0.367188
361,-0.354375,-0.352188,-0.34,-0.280625,-0.249375,-0.346563,-0.383438,0.046875,-0.403125,-0.411563,-0.409375,-0.410312,-0.404375,-0.422188,-0.355,-0.296562,-0.302813,-0.32125,-0.333438,-0.323437,-0.305,-0.296875,-0.342187,-0.41875,-0.408125,-0.409375,-0.406875,-0.4125,-0.424375,0.079375,-0.4025,-0.352813
362,-0.333125,-0.337812,-0.325312,-0.267813,-0.2375,-0.340313,-0.375,0.036875,-0.355938,-0.39375,-0.391875,-0.392812,-0.388125,-0.4,-0.364688,-0.286875,-0.294062,-0.306562,-0.325938,-0.309375,-0.292813,-0.287188,-0.353125,-0.396562,-0.392812,-0.391875,-0.390937,-0.394375,-0.408437,0.102812,-0.392812,-0.3475
363,-0.330938,-0.324062,-0.309063,-0.237188,-0.240313,-0.331562,-0.340312,-0.149375,-0.201562,-0.391562,-0.38875,-0.382187,-0.385,-0.383125,-0.404375,-0.330938,-0.288125,-0.30625,-0.314687,-0.314687,-0.30625,-0.288125,-0.330938,-0.404375,-0.383125,-0.385,-0.382187,-0.38875,-0.391562,-0.201562,-0.149375,-0.340312
364,-0.33125,-0.334688,-0.312187,-0.255938,-0.235625,-0.327188,-0.363438,-0.22125,-0.062813,-0.3875,-0.3875,-0.373438,-0.380625,-0.39625,-0.399688,-0.274063,-0.2425,-0.246562,-0.247812,-0.255,-0.2475,-0.24,-0.254063,-0.355313,-0.412188,-0.379687,-0.375313,-0.380625,-0.389062,-0.40625,0.15625,-0.40875
365,-0.25875,-0.255,-0.233438,-0.142813,-0.141875,-0.243438,-0.276563,0.08125,-0.134375,-0.295625,-0.29625,-0.289688,-0.291875,-0.3,-0.257813,-0.180313,-0.190625,-0.210938,-0.228125,-0.225938,-0.20375,-0.185937,-0.18875,-0.282813,-0.295313,-0.292813,-0.289688,-0.294688,-0.297188,0.176563,-0.239688,-0.260625
366,-0.228125,-0.24,-0.223438,-0.138125,-0.145313,-0.237188,-0.280937,0.133125,-0.275937,-0.309375,-0.310625,-0.3125,-0.311875,-0.322812,-0.26625,-0.229062,-0.250625,-0.266875,-0.2875,-0.266875,-0.250625,-0.229062,-0.26625,-0.322812,-0.311875,-0.3125,-0.310625,-0.309375,-0.275937,0.133125,-0.280937,-0.237188
367,-0.284687,-0.29,-0.290312,-0.217813,-0.243437,-0.332188,-0.379063,0.00625,-0.393125,-0.393438,-0.400312,-0.400937,-0.403125,-0.432187,-0.364375,-0.32375,-0.338125,-0.355625,-0.373125,-0.35125,-0.332813,-0.324375,-0.389062,-0.43,-0.397812,-0.400312,-0.402187,-0.39125,-0.295,-0.1025,-0.3575,-0.315625
368,-0.3625,-0.37125,-0.36,-0.282187,-0.284375,-0.375625,-0.433437,0.0075,-0.436562,-0.434062,-0.425625,-0.435313,-0.435625,-0.462812,-0.399375,-0.316563,-0.314687,-0.32375,-0.327812,-0.319062,-0.308125,-0.375313,-0.458438,-0.440938,-0.434375,-0.428438,-0.429688,-0.433125,0.02,-0.456875,-0.389375,-0.305
369,-0.336563,-0.3325,-0.3225,-0.230937,-0.221563,-0.314062,-0.351875,0.07125,0.121562,-0.385312,-0.38375,-0.374375,-0.375313,-0.375625,-0.375625,-0.2975,-0.280313,-0.286563,-0.315313,-0.2975,-0.28125,-0.280625,-0.355312,-0.377187,-0.375313,-0.370625,-0.385938,-0.38375,-0.358438,0.596563,-0.414688,-0.3325
370,-0.3225,-0.328125,-0.3125,-0.23875,-0.21625,-0.3225,-0.352188,-0.037187,0.02625,-0.364688,-0.376563,-0.375313,-0.362813,-0.373125,-0.370625,-0.297812,-0.28625,-0.300313,-0.31625,-0.313125,-0.294375,-0.281875,-0.317187,-0.377187,-0.369687,-0.366562,-0.374062,-0.372812,-0.367188,0.297812,-0.313437,-0.341563
371,-0.33375,-0.335625,-0.337813,-0.262812,-0.259687,-0.351563,-0.391875,-0.088125,-0.310313,-0.418125,-0.419062,-0.417812,-0.419062,-0.432812,-0.422188,-0.315625,-0.287812,-0.3125,-0.3125,-0.315313,-0.3025,-0.292812,-0.3425,-0.449375,-0.421875,-0.416875,-0.42125,-0.415,-0.416562,0.031562,-0.43,-0.381562
372,-0.321562,-0.314375,-0.3075,-0.215625,-0.205,-0.29,-0.321562,-0.062188,-0.15875,-0.361562,-0.349375,-0.34625,-0.34125,-0.345,-0.354062,-0.262188,-0.224687,-0.230312,-0.245,-0.240625,-0.225,-0.23,-0.302188,-0.3575,-0.341875,-0.341563,-0.347188,-0.356562,-0.365938,0.1825,-0.384375,-0.315938
373,-0.255,-0.271562,-0.257187,-0.1875,-0.161875,-0.221875,-0.281563,-0.095312,-0.09,-0.334375,-0.340312,-0.3375,-0.33375,-0.338125,-0.309063,-0.233438,-0.236875,-0.260312,-0.2725,-0.2725,-0.260312,-0.236875,-0.233438,-0.309063,-0.338125,-0.33375,-0.3375,-0.340312,-0.334375,-0.09,-0.095312,-0.281563
374,-0.271562,-0.293125,-0.286563,-0.21,-0.227187,-0.3175,-0.363125,0.03875,-0.409687,-0.401875,-0.404688,-0.41125,-0.420625,-0.450625,-0.363438,-0.321562,-0.331563,-0.35875,-0.3675,-0.355313,-0.324375,-0.319375,-0.411563,-0.44125,-0.411563,-0.415,-0.40125,-0.403125,-0.033125,-0.32875,-0.345,-0.28875
375,-0.366563,-0.377813,-0.361875,-0.286875,-0.286875,-0.387812,-0.445,0.079062,-0.447187,-0.448438,-0.43875,-0.432187,-0.449375,-0.47875,-0.374375,-0.315625,-0.318125,-0.332187,-0.334688,-0.3225,-0.314063,-0.358437,-0.475313,-0.4525,-0.431875,-0.439062,-0.448438,-0.435313,0.083125,-0.465313,-0.39375,-0.299062
376,-0.35375,-0.343125,-0.32625,-0.235938,-0.241562,-0.340625,-0.365313,0.080313,-0.352187,-0.395938,-0.393125,-0.387187,-0.371562,-0.389375,-0.320625,-0.2625,-0.268125,-0.295938,-0.315,-0.295938,-0.268125,-0.2625,-0.320625,-0.389375,-0.371562,-0.387187,-0.393125,-0.395938,-0.352187,0.080313,-0.365313,-0.340625
377,-0.314687,-0.311875,-0.294375,-0.210938,-0.214063,-0.315313,-0.354375,0.165312,-0.335625,-0.37,-0.3675,-0.35375,-0.35875,-0.355,-0.350313,-0.27375,-0.265312,-0.283437,-0.30375,-0.283437,-0.265312,-0.27375,-0.350313,-0.355,-0.35875,-0.35375,-0.3675,-0.37,-0.335625,0.165312,-0.354375,-0.315313
378,-0.32,-0.327188,-0.3125,-0.227187,-0.242188,-0.345625,-0.368125,-0.16875,-0.187813,-0.414375,-0.413438,-0.41625,-0.4175,-0.434375,-0.45875,-0.37375,-0.293438,-0.308438,-0.317188,-0.316875,-0.3125,-0.292813,-0.356562,-0.45625,-0.440938,-0.41375,-0.419375,-0.41375,-0.411875,-0.341875,-0.014687,-0.375625
379,-0.337187,-0.326563,-0.329687,-0.245,-0.239375,-0.326875,-0.34,-0.041563,-0.202188,-0.352188,-0.345313,-0.349375,-0.356562,-0.377813,-0.374687,-0.26125,-0.2375,-0.251562,-0.27125,-0.265625,-0.249687,-0.2375,-0.279687,-0.393125,-0.368125,-0.355938,-0.345625,-0.350625,-0.348125,0.086875,-0.331875,-0.335312
380,-0.27875,-0.27625,-0.278437,-0.1975,-0.1825,-0.287813,-0.297813,0.0025,-0.203125,-0.353125,-0.34875,-0.352812,-0.355313,-0.358438,-0.315313,-0.246875,-0.257187,-0.280625,-0.291875,-0.294062,-0.271875,-0.254063,-0.256563,-0.332813,-0.359062,-0.352188,-0.351875,-0.350938,-0.3525,0.108125,-0.299375,-0.29375
381,-0.289375,-0.297188,-0.279688,-0.201875,-0.208438,-0.310625,-0.368437,0.038125,-0.379063,-0.366563,-0.370313,-0.367188,-0.369062,-0.388125,-0.335,-0.29125,-0.296875,-0.330312,-0.344063,-0.333125,-0.300312,-0.29125,-0.323125,-0.388125,-0.3725,-0.36625,-0.37,-0.367188,-0.384062,0.064063,-0.394375,-0.315625
382,-0.340312,-0.354375,-0.341875,-0.2675,-0.241875,-0.348437,-0.396563,0.0225,-0.435,-0.419375,-0.426562,-0.418437,-0.436562,-0.472188,-0.366563,-0.324375,-0.3325,-0.355938,-0.356562,-0.346875,-0.3275,-0.32875,-0.416562,-0.463125,-0.424688,-0.4275,-0.420312,-0.41875,-0.126875,-0.29375,-0.370937,-0.289688
383,-0.358125,-0.352187,-0.33125,-0.245,-0.237188,-0.331875,-0.379687,0.134688,-0.391875,-0.3725,-0.369687,-0.365625,-0.3575,-0.379375,-0.285937,-0.239375,-0.245313,-0.254063,-0.265625,-0.24875,-0.2375,-0.25375,-0.343125,-0.370625,-0.362188,-0.365938,-0.369063,-0.375625,0.04875,-0.320625,-0.350625,-0.27625
384,-0.264375,-0.265,-0.243437,-0.15375,-0.15375,-0.25625,-0.29375,0.160313,-0.2825,-0.314063,-0.316562,-0.314687,-0.3,-0.3075,-0.282812,-0.20375,-0.20375,-0.225625,-0.238125,-0.225625,-0.20375,-0.20375,-0.282812,-0.3075,-0.3,-0.314687,-0.316562,-0.314063,-0.2825,0.160313,-0.29375,-0.25625
385,-0.236875,-0.242188,-0.217187,-0.145625,-0.16875,-0.261562,-0.286875,0.038125,-0.224063,-0.325,-0.325312,-0.325312,-0.322812,-0.3425,-0.321875,-0.248437,-0.237813,-0.253437,-0.277187,-0.269375,-0.25,-0.235625,-0.260312,-0.337812,-0.335,-0.32375,-0.321875,-0.331563,-0.320938,0.0675,-0.250937,-0.27625
386,-0.282187,-0.292188,-0.264375,-0.196875,-0.220625,-0.323125,-0.327188,-0.008437,-0.25375,-0.369375,-0.367813,-0.372187,-0.365,-0.389688,-0.3925,-0.274062,-0.245937,-0.24625,-0.262187,-0.259687,-0.244687,-0.245937,-0.305,-0.40125,-0.379375,-0.365,-0.374063,-0.367188,-0.366562,0.039063,-0.301875,-0.320938
387,-0.270312,-0.264375,-0.263438,-0.181875,-0.179063,-0.27125,-0.292812,-0.090625,-0.085938,-0.33875,-0.339687,-0.32625,-0.316875,-0.32625,-0.325312,-0.230625,-0.211562,-0.22875,-0.256562,-0.255313,-0.233125,-0.213437,-0.222187,-0.315937,-0.33125,-0.314375,-0.326875,-0.338437,-0.339687,-0.247187,0.072812,-0.296875
388,-0.25875,-0.26875,-0.261875,-0.176875,-0.154375,-0.259062,-0.315938,0.111875,-0.304062,-0.33125,-0.326875,-0.325938,-0.325625,-0.32125,-0.28875,-0.224375,-0.233125,-0.257813,-0.28,-0.270938,-0.236563,-0.226563,-0.253125,-0.319687,-0.32875,-0.320313,-0.330625,-0.329062,-0.325312,0.175625,-0.374688,-0.280312
389,-0.278125,-0.285313,-0.28375,-0.21375,-0.196562,-0.30125,-0.362813,0.069375,-0.383438,-0.378437,-0.38,-0.384062,-0.383437,-0.399687,-0.316875,-0.270937,-0.28875,-0.30875,-0.314063,-0.302812,-0.279375,-0.276562,-0.3725,-0.394375,-0.380937,-0.382813,-0.380313,-0.368125,-0.0075,-0.321563,-0.321875,-0.245
390,-0.310938,-0.322812,-0.299062,-0.226563,-0.2525,-0.325625,-0.386875,0.162188,-0.39625,-0.388125,-0.40375,-0.4025,-0.38875,-0.443437,-0.345313,-0.240312,-0.239063,-0.270312,-0.26625,-0.259062,-0.245625,-0.2625,-0.406563,-0.4225,-0.385,-0.405625,-0.402812,-0.385625,-0.010625,-0.249063,-0.338125,-0.3175
